Sample Rate,512.242 hertz

-41.92
-44.644
-47.03
-49.05
-50.681
-51.904
-52.708
-53.099
-53.097
-52.734
-52.057
-51.123
-49.986
-48.719
-47.392
-46.07
-44.828
-43.72
-42.823
-42.265
-42.113
-42.358
-42.896
-43.448
-43.697
-43.411
-42.302
-40.025
-36.442
-31.619
-25.924
-20.231
-15.456
-12.278
-11.36
-13.204
-17.801
-24.629
-32.522
-39.4
-42.969
-41.117
-31.743
-13.102
15.772
54.908
103.279
158.524
217.4
276.165
330.599
376.408
409.679
427.393
427.475
409.169
373.385
322.452
259.752
189.514
116.694
46.161
-17.459
-69.949
-109.574
-137.131
-152.767
-156.858
-149.754
-129.962
-101.222
-71.489
-47.452
-36.667
-40.071
-51.313
-64.948
-75.049
-79.276
-80.492
-80.557
-80.966
-82.283
-83.063
-82.859
-82.054
-81.086
-80.777
-81.462
-82.966
-85.129
-87.755
-90.661
-93.715
-96.76
-99.652
-102.293
-104.612
-106.562
-108.117
-109.251
-109.956
-110.23
-110.066
-109.474
-108.483
-107.131
-105.462
-103.517
-101.327
-98.929
-96.36
-93.664
-90.888
-88.066
-85.222
-82.372
-79.528
-76.7
-73.899
-71.123
-68.365
-65.615
-62.864
-60.108
-57.341
-54.559
-51.75
-48.904
-46.008
-43.055
-40.039
-36.951
-33.785
-30.535
-27.196
-23.764
-20.238
-16.616
-12.895
-9.072
-5.145
-1.113
3.023
7.263
11.604
16.044
20.577
25.195
29.892
34.656
39.478
44.345
49.245
54.162
59.08
63.983
68.851
73.668
78.411
83.061
87.598
91.999
96.244
100.313
104.184
107.838
111.255
114.417
117.306
119.907
122.203
124.182
125.83
127.138
128.097
128.699
128.94
128.817
128.329
127.479
126.271
124.71
122.804
120.564
118.003
115.134
111.976
108.547
104.866
100.957
96.844
92.554
88.112
83.546
78.882
74.149
69.374
64.588
59.822
55.104
50.463
45.928
41.526
37.285
33.227
29.376
25.746
22.352
19.207
16.324
13.717
11.395
9.363
7.62
6.162
4.982
4.076
3.436
3.052
2.91
2.997
3.305
3.832
4.58
5.547
6.722
8.083
9.611
11.299
13.15
15.187
17.417
19.819
22.356
24.983
27.654
30.362
33.062
35.632
38
40.156
42.164
44.259
46.63
49.209
51.874
54.512
56.826
58.483
59
57.435
52.94
45.29
34.595
21.258
6.176
-9.671
-25.059
-38.006
-46.571
-49.723
-47.065
-38.715
-25.538
-8.935
9.147
25.989
38.564
45.588
47.504
43.322
31.989
12.101
-19.443
-59.618
-100.67
-135.69
-156.149
-160.27
-154.204
-143.323
-133.974
-128.949
-125.431
-121.803
-117.132
-111.835
-108.401
-107.852
-109.914
-113.798
-118.153
-122.296
-126.071
-129.175
-131.41
-132.677
-132.952
-132.481
-131.599
-130.446
-129.054
-127.431
-125.54
-123.392
-121.023
-118.412
-115.525
-112.358
-108.932
-105.298
-101.522
-97.65
-93.71
-89.726
-85.717
-81.707
-77.723
-73.786
-69.915
-66.123
-62.417
-58.805
-55.293
-51.888
-48.594
-45.41
-42.337
-39.376
-36.531
-33.805
-31.204
-28.73
-26.383
-24.16
-22.06
-20.079
-18.213
-16.459
-14.81
-13.262
-11.807
-10.441
-9.156
-7.947
-6.805
-5.723
-4.694
-3.71
-2.765
-1.852
-0.966
-0.101
0.747
1.584
2.412
3.236
4.058
4.881
5.707
6.538
7.376
8.222
9.076
9.94
10.812
11.693
12.582
13.477
14.377
15.281
16.186
17.091
17.993
18.889
19.778
20.656
21.521
22.37
23.201
24.012
24.801
25.565
26.303
27.014
27.697
28.35
28.973
29.565
30.125
30.652
31.145
31.604
32.028
32.416
32.766
33.079
33.353
33.586
33.778
33.926
34.029
34.085
34.091
34.045
33.944
33.784
33.563
33.278
32.925
32.5
31.996
31.411
30.738
29.972
29.106
28.133
27.045
25.835
24.495
23.019
21.398
19.624
17.693
15.599
13.339
10.909
8.305
5.523
2.563
-0.578
-3.902
-7.409
-11.102
-14.98
-19.038
-23.268
-27.664
-32.219
-36.928
-41.79
-46.796
-51.937
-57.204
-62.588
-68.074
-73.646
-79.269
-84.903
-90.508
-96.05
-101.499
-106.831
-112.015
-117.017
-121.807
-126.353
-130.64
-134.655
-138.371
-141.77
-144.851
-147.633
-150.181
-152.577
-154.883
-157.154
-159.426
-161.744
-164.176
-166.778
-169.592
-172.637
-175.892
-179.384
-183.206
-187.354
-191.714
-196.06
-200.022
-203.277
-205.574
-206.557
-205.909
-203.548
-199.614
-194.581
-189.079
-183.705
-179.273
-176.618
-176.187
-177.154
-177.433
-174.985
-168.717
-160.411
-152.752
-146.006
-137.883
-120.997
-87.482
-33.718
40.059
124.368
205.657
270.157
303.779
303.219
272.313
218.643
154.755
84.4
5.961
-79.231
-169.042
-252.369
-313.828
-347.263
-355.428
-347.665
-335.159
-322.4
-305.734
-282.855
-256.626
-232.312
-218.606
-218.636
-226.928
-237.733
-244.755
-245.321
-242.452
-238.379
-234.737
-232.15
-229.234
-225.583
-221.612
-217.762
-214.822
-213.09
-212.375
-212.531
-213.353
-214.653
-216.295
-218.108
-219.936
-221.667
-223.201
-224.476
-225.461
-226.124
-226.456
-226.452
-226.099
-225.41
-224.421
-223.164
-221.68
-220
-218.146
-216.149
-214.044
-211.872
-209.678
-207.491
-205.324
-203.187
-201.084
-199.016
-196.982
-194.972
-192.963
-190.937
-188.88
-186.779
-184.627
-182.412
-180.119
-177.734
-175.243
-172.636
-169.905
-167.043
-164.042
-160.897
-157.605
-154.166
-150.583
-146.858
-142.993
-138.989
-134.85
-130.581
-126.188
-121.679
-117.061
-112.344
-107.538
-102.657
-97.714
-92.725
-87.705
-82.669
-77.634
-72.62
-67.643
-62.722
-57.876
-53.123
-48.483
-43.974
-39.617
-35.431
-31.433
-27.642
-24.077
-20.755
-17.691
-14.901
-12.399
-10.199
-8.31
-6.745
-5.511
-4.615
-4.064
-3.861
-4.009
-4.507
-5.356
-6.551
-8.088
-9.959
-12.156
-14.67
-17.488
-20.598
-23.985
-27.633
-31.526
-35.647
-39.977
-44.498
-49.19
-54.028
-58.989
-64.05
-69.187
-74.383
-79.612
-84.844
-90.06
-95.254
-100.415
-105.534
-110.594
-115.549
-120.379
-125.09
-129.648
-133.985
-138.046
-141.774
-145.153
-148.241
-151.05
-153.502
-155.667
-157.803
-159.961
-162.065
-164.149
-165.933
-167.953
-171.831
-177.201
-182.594
-185.549
-181.463
-170.694
-157.865
-147.606
-146.483
-154.835
-166.495
-176.704
-180.298
-176.456
-169.817
-163.213
-158.605
-156.566
-155.218
-153.733
-152.182
-150.512
-149.02
-147.78
-146.545
-145.249
-143.941
-142.618
-141.274
-139.922
-138.577
-137.264
-136.029
-134.886
-133.815
-132.81
-131.872
-130.998
-130.188
-129.44
-128.744
-128.096
-127.494
-126.937
-126.421
-125.942
-125.495
-125.075
-124.679
-124.302
-123.939
-123.587
-123.242
-122.901
-122.559
-122.216
-121.868
-121.513
-121.151
-120.781
-120.401
-120.011
-119.613
-119.205
-118.788
-118.364
-117.935
-117.501
-117.066
-116.632
-116.2
-115.775
-115.358
-114.952
-114.559
-114.184
-113.827
-113.492
-113.183
-112.9
-112.648
-112.43
-112.247
-112.104
-112.001
-111.943
-111.929
-111.962
-112.044
-112.175
-112.356
-112.588
-112.872
-113.209
-113.598
-114.04
-114.535
-115.083
-115.682
-116.334
-117.036
-117.787
-118.587
-119.434
-120.328
-121.267
-122.251
-123.28
-124.352
-125.467
-126.624
-127.824
-129.064
-130.344
-131.663
-133.019
-134.41
-135.836
-137.293
-138.782
-140.301
-141.847
-143.419
-145.016
-146.635
-148.272
-149.926
-151.593
-153.27
-154.953
-156.64
-158.325
-160.006
-161.68
-163.342
-164.987
-166.613
-168.211
-169.778
-171.307
-172.789
-174.219
-175.588
-176.887
-178.108
-179.245
-180.291
-181.237
-182.08
-182.813
-183.431
-183.931
-184.306
-184.552
-184.661
-184.628
-184.446
-184.108
-183.609
-182.946
-182.115
-181.115
-179.946
-178.611
-177.109
-175.442
-173.608
-171.603
-169.426
-167.082
-164.579
-161.931
-159.157
-156.284
-153.339
-150.352
-147.347
-144.342
-141.346
-138.358
-135.377
-132.398
-129.427
-126.478
-123.568
-120.708
-117.906
-115.164
-112.471
-109.808
-107.147
-104.452
-101.698
-98.879
-96.009
-93.129
-90.29
-87.559
-84.984
-82.598
-80.432
-78.51
-76.855
-75.493
-74.457
-73.785
-73.532
-73.769
-74.548
-75.907
-77.846
-80.326
-83.286
-86.638
-90.303
-94.211
-98.291
-102.473
-106.693
-110.892
-115.012
-118.992
-122.749
-126.179
-129.191
-131.706
-133.671
-135.077
-135.946
-136.321
-136.255
-135.8
-135.007
-133.948
-132.708
-131.358
-129.971
-128.618
-127.362
-126.325
-125.659
-125.419
-125.568
-125.971
-126.354
-126.484
-126.234
-125.349
-123.49
-120.56
-116.653
-112.162
-107.833
-104.162
-101.318
-99.628
-99.505
-100.891
-103.304
-105.614
-106.049
-103.234
-96.118
-83.392
-63.637
-35.929
-0.161
42.664
90.651
141.852
193.892
243.754
287.982
322.809
345.207
353.438
346.21
323.74
288.63
242.8
188.393
127.558
59.854
-10.649
-75.417
-126.741
-156.351
-163.46
-155.546
-139.796
-123.784
-110.919
-99.477
-89.159
-79.67
-71.274
-65.808
-63.444
-63.427
-64.993
-66.697
-67.403
-66.784
-64.774
-61.565
-57.607
-53.281
-48.895
-44.844
-41.496
-39.006
-37.391
-36.565
-36.334
-36.537
-37.058
-37.755
-38.487
-39.134
-39.572
-39.727
-39.574
-39.089
-38.257
-37.077
-35.541
-33.664
-31.487
-29.047
-26.381
-23.526
-20.509
-17.365
-14.136
-10.864
-7.597
-4.369
-1.196
1.906
4.931
7.877
10.741
13.533
16.27
18.968
21.64
24.297
26.948
29.605
32.282
34.996
37.761
40.589
43.491
46.476
49.556
52.737
56.029
59.435
62.96
66.607
70.381
74.287
78.329
82.506
86.82
91.269
95.851
100.559
105.388
110.326
115.364
120.489
125.689
130.95
136.259
141.6
146.956
152.31
157.644
162.937
168.168
173.312
178.344
183.241
187.978
192.533
196.884
201.008
204.884
208.496
211.824
214.848
217.548
219.898
221.876
223.472
224.678
225.492
225.921
225.971
225.649
224.973
223.954
222.597
220.903
218.857
216.448
213.675
210.546
207.081
203.304
199.22
194.836
190.155
185.169
179.874
174.262
168.305
161.995
155.348
148.4
141.22
133.891
126.473
119.015
111.556
104.126
96.773
89.546
82.482
75.637
69.064
62.824
57.01
51.688
46.885
42.603
38.802
35.416
32.403
29.731
27.365
25.287
23.467
21.876
20.499
19.313
18.287
17.375
16.506
15.621
14.694
13.716
12.709
11.714
10.755
9.847
9.013
8.26
7.594
7.019
6.521
6.085
5.707
5.392
5.158
5.021
4.982
5.033
5.156
5.325
5.519
5.721
5.911
6.074
6.201
6.287
6.337
6.36
6.357
6.331
6.28
6.199
6.089
5.952
5.791
5.611
5.417
5.215
5.011
4.813
4.626
4.452
4.293
4.15
4.022
3.913
3.822
3.753
3.707
3.687
3.696
3.737
3.813
3.924
4.073
4.259
4.483
4.744
5.041
5.373
5.739
6.136
6.563
7.019
7.501
8.007
8.534
9.079
9.64
10.212
10.792
11.376
11.962
12.544
13.12
13.687
14.241
14.778
15.296
15.791
16.261
16.701
17.108
17.479
17.81
18.098
18.342
18.538
18.684
18.78
18.824
18.814
18.75
18.631
18.455
18.224
17.935
17.59
17.19
16.734
16.224
15.662
15.05
14.389
13.683
12.932
12.139
11.307
10.437
9.534
8.599
7.636
6.648
5.638
4.609
3.564
2.508
1.443
0.373
-0.699
-1.769
-2.834
-3.889
-4.931
-5.955
-6.957
-7.932
-8.876
-9.783
-10.651
-11.474
-12.249
-12.971
-13.637
-14.242
-14.785
-15.26
-15.664
-15.995
-16.248
-16.421
-16.512
-16.517
-16.435
-16.264
-16.003
-15.649
-15.203
-14.663
-14.028
-13.298
-12.473
-11.555
-10.545
-9.446
-8.261
-6.993
-5.648
-4.231
-2.749
-1.208
0.385
2.023
3.697
5.4
7.121
8.853
10.585
12.307
14.005
15.669
17.286
18.844
20.332
21.736
23.047
24.254
25.349
26.324
27.172
27.883
28.446
28.854
29.101
29.18
29.087
28.818
28.37
27.745
26.95
25.991
24.869
23.584
22.128
20.501
18.705
16.747
14.636
12.387
10.014
7.543
5.012
2.456
-0.091
-2.601
-5.058
-7.434
-9.692
-11.795
-13.694
-15.355
-16.756
-17.874
-18.699
-19.24
-19.517
-19.569
-19.457
-19.237
-18.978
-18.758
-18.647
-18.725
-19.067
-19.76
-20.934
-22.641
-24.83
-27.358
-29.956
-32.331
-34.279
-35.554
-35.801
-34.866
-32.864
-30.148
-27.442
-25.442
-24.509
-24.933
-27.047
-30.811
-35.661
-40.522
-43.661
-43.202
-37.651
-25.694
-6.129
22.001
59.058
104.376
156.51
212.305
267.257
318.658
364.358
403.334
437.319
462.756
473.154
464.327
430.167
372.758
299.681
214.015
123.408
33.756
-49.372
-112.484
-148.629
-156.893
-141.307
-115.479
-89.406
-67.493
-51.359
-37.49
-24.098
-12.191
-3.195
0.411
-1.863
-8.522
-17.542
-26.473
-33.951
-39.654
-43.256
-44.461
-43.308
-40.068
-35.507
-30.806
-26.643
-23.241
-20.756
-19.242
-18.713
-19.166
-20.367
-21.86
-23.35
-24.676
-25.722
-26.487
-26.942
-27.031
-26.769
-26.207
-25.379
-24.33
-23.085
-21.644
-20.021
-18.245
-16.338
-14.343
-12.301
-10.252
-8.24
-6.292
-4.427
-2.664
-1.012
0.523
1.941
3.25
4.467
5.6
6.66
7.659
8.609
9.532
10.447
11.372
12.323
13.318
14.37
15.495
16.707
18.014
19.428
20.961
22.625
24.434
26.397
28.51
30.772
33.186
35.75
38.462
41.315
44.296
47.398
50.629
53.991
57.492
61.123
64.864
68.696
72.596
76.552
80.568
84.633
88.727
92.839
96.962
101.095
105.25
109.406
113.505
117.499
121.336
124.982
128.426
131.645
134.613
137.301
139.671
141.696
143.368
144.66
145.532
145.945
145.844
145.22
144.117
142.566
140.597
138.232
135.472
132.333
128.846
125.036
120.925
116.53
111.86
106.942
101.825
96.557
91.197
85.77
80.263
74.678
69.019
63.297
57.536
51.747
45.933
40.108
34.296
28.524
22.821
17.203
11.671
6.229
0.878
-4.369
-9.485
-14.449
-19.246
-23.861
-28.284
-32.504
-36.502
-40.274
-43.822
-47.151
-50.266
-53.168
-55.855
-58.327
-60.587
-62.64
-64.492
-66.15
-67.621
-68.912
-70.032
-70.992
-71.802
-72.473
-73.01
-73.422
-73.717
-73.903
-73.99
-73.986
-73.898
-73.736
-73.508
-73.223
-72.889
-72.512
-72.1
-71.657
-71.189
-70.701
-70.197
-69.68
-69.153
-68.62
-68.082
-67.543
-67.005
-66.47
-65.939
-65.414
-64.898
-64.389
-63.891
-63.402
-62.923
-62.455
-61.998
-61.551
-61.114
-60.687
-60.268
-59.858
-59.456
-59.06
-58.669
-58.281
-57.897
-57.514
-57.132
-56.751
-56.371
-55.991
-55.612
-55.235
-54.86
-54.487
-54.118
-53.753
-53.392
-53.035
-52.684
-52.337
-51.996
-51.661
-51.332
-51.009
-50.693
-50.384
-50.082
-49.788
-49.502
-49.226
-48.959
-48.704
-48.461
-48.232
-48.018
-47.821
-47.643
-47.484
-47.348
-47.233
-47.143
-47.077
-47.035
-47.019
-47.028
-47.062
-47.123
-47.209
-47.322
-47.462
-47.628
-47.821
-48.041
-48.289
-48.564
-48.867
-49.198
-49.557
-49.944
-50.358
-50.8
-51.268
-51.761
-52.279
-52.818
-53.378
-53.956
-54.548
-55.152
-55.765
-56.384
-57.005
-57.625
-58.24
-58.848
-59.445
-60.027
-60.591
-61.133
-61.649
-62.135
-62.588
-63.002
-63.373
-63.697
-63.969
-64.185
-64.34
-64.431
-64.451
-64.398
-64.267
-64.055
-63.757
-63.371
-62.893
-62.322
-61.656
-60.894
-60.036
-59.081
-58.031
-56.886
-55.648
-54.319
-52.902
-51.399
-49.815
-48.154
-46.42
-44.619
-42.759
-40.846
-38.889
-36.899
-34.883
-32.855
-30.823
-28.801
-26.799
-24.829
-22.901
-21.027
-19.218
-17.483
-15.835
-14.285
-12.843
-11.522
-10.331
-9.28
-8.379
-7.635
-7.052
-6.632
-6.378
-6.294
-6.389
-6.668
-7.134
-7.787
-8.626
-9.645
-10.836
-12.181
-13.648
-15.207
-16.827
-18.482
-20.154
-21.822
-23.464
-25.051
-26.546
-27.922
-29.161
-30.246
-31.16
-31.893
-32.449
-32.869
-33.225
-33.588
-34.017
-34.546
-35.2
-36.035
-37.111
-38.49
-40.243
-42.397
-44.989
-48.11
-51.765
-55.872
-60.25
-64.5
-68.206
-71.084
-72.75
-72.798
-71.142
-67.837
-63.262
-58.326
-53.728
-49.926
-47.598
-47.265
-48.807
-51.729
-54.745
-55.629
-52.658
-44.321
-28.512
-3.549
31.337
76.388
129.419
186.863
246.926
306.546
363.576
416.244
457.73
482.985
487.493
466.857
425.523
368.776
300.745
228.409
152.384
73.062
-2.539
-69.664
-121.281
-151.473
-164.788
-165.381
-156.624
-141.191
-115.016
-77.13
-33.113
7.69
33.397
37.18
22.03
-1.645
-22.923
-34.965
-37.337
-35.294
-32.882
-31.07
-29.365
-25.92
-20.382
-14.261
-8.704
-4.33
-1.379
0.277
0.743
0.018
-1.622
-3.612
-5.571
-7.315
-8.736
-9.851
-10.645
-11.027
-10.99
-10.592
-9.866
-8.845
-7.554
-5.975
-4.121
-2.027
0.278
2.743
5.32
7.967
10.637
13.299
15.935
18.528
21.069
23.552
25.976
28.348
30.682
32.983
35.256
37.505
39.735
41.958
44.188
46.436
48.713
51.028
53.39
55.809
58.296
60.857
63.501
66.229
69.043
71.949
74.952
78.065
81.291
84.631
88.079
91.633
95.281
99.016
102.819
106.663
110.524
114.377
118.2
121.986
125.726
129.406
133.014
136.532
139.954
143.292
146.562
149.773
152.943
156.087
159.229
162.419
165.69
169.059
172.536
176.104
179.742
183.433
187.159
190.893
194.592
198.191
201.601
204.753
207.567
209.953
211.818
213.03
213.486
213.122
211.889
209.767
206.748
202.821
197.98
192.242
185.634
178.207
170.045
161.226
151.848
142.022
131.876
121.579
111.271
101.065
91.062
81.318
71.879
62.839
54.285
46.276
38.883
32.124
25.962
20.433
15.566
11.2
7.133
3.348
-0.248
-3.73
-6.843
-10.393
-15.159
-20.08
-24.852
-27.494
-25.645
-21.983
-18.291
-17.212
-22.35
-30.499
-38.921
-45.712
-47.77
-47.252
-46.358
-45.573
-46.245
-47.594
-48.613
-49.508
-50.151
-50.602
-51.061
-51.388
-51.481
-51.393
-51.157
-50.79
-50.325
-49.796
-49.227
-48.652
-48.105
-47.584
-47.083
-46.604
-46.148
-45.721
-45.331
-44.984
-44.68
-44.421
-44.208
-44.037
-43.906
-43.809
-43.741
-43.698
-43.677
-43.677
-43.697
-43.737
-43.796
-43.873
-43.966
-44.072
-44.188
-44.309
-44.432
-44.553
-44.669
-44.777
-44.873
-44.956
-45.024
-45.075
-45.107
-45.119
-45.109
-45.078
-45.024
-44.948
-44.848
-44.726
-44.583
-44.418
-44.233
-44.029
-43.807
-43.568
-43.314
-43.045
-42.763
-42.468
-42.163
-41.847
-41.522
-41.189
-40.85
-40.506
-40.157
-39.807
-39.456
-39.105
-38.756
-38.41
-38.068
-37.731
-37.4
-37.076
-36.76
-36.451
-36.151
-35.86
-35.578
-35.305
-35.041
-34.786
-34.541
-34.305
-34.079
-33.864
-33.659
-33.465
-33.284
-33.115
-32.961
-32.822
-32.7
-32.595
-32.51
-32.445
-32.401
-32.381
-32.384
-32.412
-32.466
-32.545
-32.65
-32.781
-32.937
-33.118
-33.323
-33.549
-33.797
-34.064
-34.349
-34.648
-34.96
-35.282
-35.61
-35.941
-36.271
-36.597
-36.914
-37.217
-37.502
-37.762
-37.992
-38.186
-38.337
-38.44
-38.488
-38.475
-38.394
-38.24
-38.006
-37.687
-37.28
-36.778
-36.179
-35.48
-34.677
-33.771
-32.76
-31.644
-30.425
-29.104
-27.685
-26.171
-24.568
-22.88
-21.115
-19.279
-17.381
-15.43
-13.435
-11.407
-9.357
-7.299
-5.246
-3.216
-1.223
0.717
2.587
4.369
6.048
7.607
9.035
10.319
11.447
12.405
13.18
13.761
14.139
14.306
14.253
13.975
13.468
12.732
11.771
10.589
9.191
7.575
5.735
3.669
1.382
-1.123
-3.834
-6.739
-9.82
-13.05
-16.392
-19.807
-23.26
-26.719
-30.162
-33.556
-36.863
-40.039
-43.037
-45.816
-48.34
-50.581
-52.526
-54.175
-55.543
-56.666
-57.585
-58.345
-59.009
-59.636
-60.284
-61.028
-61.919
-63.039
-64.525
-66.433
-68.737
-71.316
-73.877
-76.1
-77.753
-78.516
-77.988
-76.008
-72.66
-68.33
-63.906
-60.273
-58.046
-57.886
-60.387
-65.57
-72.824
-80.929
-87.816
-91.127
-88.696
-78.239
-57.425
-25.781
15.026
63.22
116.158
173.578
238.314
308.896
380.22
441.6
477.011
477.944
443.974
383.404
313.286
244.089
179.213
117.389
51.098
-19.151
-85.154
-138.972
-170.85
-179.353
-172.135
-155.659
-137.102
-120.146
-102.966
-85.455
-68.069
-51.755
-39.314
-32.3
-30.857
-34.556
-41.98
-51.512
-61.84
-71.701
-80.135
-86.418
-90.083
-91.059
-89.639
-86.439
-82.242
-77.889
-73.978
-70.892
-68.859
-67.905
-67.949
-68.813
-70.18
-71.652
-72.949
-73.922
-74.506
-74.726
-74.605
-74.139
-73.362
-72.341
-71.123
-69.739
-68.2
-66.494
-64.624
-62.621
-60.522
-58.375
-56.225
-54.094
-51.999
-49.953
-47.961
-46.031
-44.166
-42.355
-40.587
-38.853
-37.146
-35.462
-33.792
-32.124
-30.439
-28.72
-26.948
-25.11
-23.195
-21.191
-19.085
-16.869
-14.535
-12.076
-9.489
-6.767
-3.905
-0.898
2.258
5.566
9.025
12.636
16.396
20.303
24.35
28.532
32.839
37.261
41.788
46.404
51.097
55.85
60.645
65.465
70.289
75.098
79.868
84.578
89.206
93.728
98.121
102.362
106.428
110.297
113.945
117.353
120.5
123.368
125.937
128.191
130.117
131.699
132.926
133.788
134.277
134.387
134.113
133.454
132.41
130.984
129.179
127.003
124.465
121.573
118.342
114.786
110.92
106.763
102.333
97.651
92.74
87.621
82.32
76.86
71.266
65.565
59.782
53.944
48.075
42.201
36.348
30.539
24.798
19.147
13.608
8.201
2.946
-2.14
-7.041
-11.742
-16.23
-20.494
-24.523
-28.309
-31.847
-35.131
-38.158
-40.928
-43.439
-45.695
-47.698
-49.453
-50.965
-52.243
-53.294
-54.128
-54.756
-55.189
-55.439
-55.519
-55.443
-55.223
-54.873
-54.408
-53.84
-53.184
-52.453
-51.66
-50.817
-49.937
-49.031
-48.11
-47.186
-46.267
-45.361
-44.478
-43.624
-42.805
-42.027
-41.294
-40.61
-39.977
-39.398
-38.873
-38.404
-37.99
-37.629
-37.321
-37.062
-36.849
-36.68
-36.549
-36.453
-36.387
-36.346
-36.326
-36.321
-36.326
-36.336
-36.347
-36.352
-36.348
-36.329
-36.292
-36.231
-36.144
-36.027
-35.877
-35.691
-35.468
-35.205
-34.901
-34.555
-34.166
-33.736
-33.264
-32.75
-32.197
-31.607
-30.98
-30.321
-29.631
-28.915
-28.176
-27.417
-26.643
-25.858
-25.066
-24.271
-23.479
-22.692
-21.917
-21.158
-20.418
-19.704
-19.018
-18.366
-17.752
-17.18
-16.653
-16.175
-15.749
-15.378
-15.065
-14.812
-14.622
-14.494
-14.432
-14.435
-14.504
-14.639
-14.84
-15.104
-15.433
-15.822
-16.271
-16.776
-17.336
-17.946
-18.603
-19.304
-20.044
-20.819
-21.623
-22.453
-23.302
-24.165
-25.037
-25.91
-26.78
-27.639
-28.482
-29.303
-30.094
-30.849
-31.562
-32.227
-32.837
-33.386
-33.868
-34.277
-34.608
-34.855
-35.015
-35.082
-35.052
-34.923
-34.691
-34.353
-33.908
-33.353
-32.688
-31.912
-31.025
-30.028
-28.923
-27.711
-26.395
-24.978
-23.466
-21.862
-20.171
-18.401
-16.556
-14.646
-12.677
-10.658
-8.599
-6.509
-4.401
-2.286
-0.178
1.911
3.968
5.98
7.934
9.818
11.621
13.333
14.944
16.443
17.82
19.063
20.162
21.107
21.89
22.502
22.936
23.186
23.253
23.137
22.837
22.351
21.67
20.787
19.704
18.42
16.941
15.277
13.443
11.465
9.378
7.221
5.028
2.828
0.641
-1.512
-3.603
-5.596
-7.452
-9.138
-10.638
-11.933
-13.004
-13.852
-14.504
-15.012
-15.462
-15.932
-16.469
-17.122
-17.946
-18.999
-20.352
-22.08
-24.217
-26.811
-29.942
-33.604
-37.736
-42.174
-46.564
-50.545
-53.852
-56.145
-57.068
-56.534
-54.57
-51.474
-48.026
-44.801
-42.084
-40.311
-39.816
-40.42
-41.723
-42.72
-41.49
-36.554
-26.889
-11.088
12.137
43.487
83.337
130.108
179.937
229.828
277.848
324.03
369.748
413.09
448.065
465.554
457.634
422.092
363.012
288.309
204.993
118.844
35.52
-37.563
-91.511
-121.373
-128.795
-121.757
-110.06
-100.034
-92.96
-86.423
-78.836
-70.596
-63.281
-59.165
-58.744
-60.963
-64.683
-68.392
-70.834
-71.601
-70.53
-67.729
-63.73
-59.037
-54.066
-49.318
-45.233
-42.026
-39.794
-38.492
-37.944
-38
-38.535
-39.412
-40.508
-41.714
-42.929
-44.051
-44.995
-45.696
-46.104
-46.19
-45.942
-45.358
-44.446
-43.239
-41.779
-40.108
-38.263
-36.274
-34.168
-31.982
-29.76
-27.546
-25.388
-23.318
-21.354
-19.51
-17.794
-16.205
-14.737
-13.374
-12.09
-10.87
-9.695
-8.553
-7.43
-6.31
-5.172
-4
-2.774
-1.479
-0.098
1.384
2.98
4.702
6.561
8.564
10.717
13.026
15.498
18.139
20.952
23.941
27.107
30.45
33.968
37.657
41.51
45.521
49.677
53.967
58.379
62.896
67.502
72.179
76.907
81.665
86.432
91.184
95.897
100.547
105.108
109.554
113.861
118.002
121.952
125.687
129.182
132.415
135.363
138.005
140.323
142.297
143.913
145.154
146.011
146.471
146.527
146.174
145.407
144.226
142.633
140.631
138.226
135.426
132.241
128.683
124.769
120.512
115.933
111.051
105.887
100.466
94.811
88.948
82.904
76.705
70.38
63.956
57.46
50.922
44.369
37.827
31.325
24.887
18.538
12.303
6.204
0.262
-5.503
-11.073
-16.432
-21.565
-26.46
-31.103
-35.487
-39.603
-43.446
-47.01
-50.294
-53.297
-56.021
-58.467
-60.64
-62.546
-64.194
-65.59
-66.746
-67.671
-68.379
-68.88
-69.19
-69.321
-69.288
-69.105
-68.786
-68.348
-67.803
-67.168
-66.455
-65.678
-64.85
-63.985
-63.093
-62.186
-61.274
-60.369
-59.478
-58.61
-57.773
-56.974
-56.218
-55.512
-54.858
-54.261
-53.723
-53.246
-52.831
-52.478
-52.185
-51.953
-51.779
-51.661
-51.596
-51.582
-51.614
-51.689
-51.802
-51.951
-52.129
-52.335
-52.562
-52.807
-53.066
-53.335
-53.611
-53.889
-54.168
-54.442
-54.71
-54.968
-55.213
-55.443
-55.655
-55.847
-56.017
-56.163
-56.284
-56.378
-56.444
-56.483
-56.493
-56.475
-56.429
-56.355
-56.255
-56.128
-55.977
-55.801
-55.603
-55.384
-55.145
-54.888
-54.614
-54.325
-54.022
-53.708
-53.383
-53.049
-52.707
-52.36
-52.009
-51.656
-51.303
-50.953
-50.607
-50.269
-49.941
-49.626
-49.326
-49.044
-48.782
-48.542
-48.327
-48.138
-47.977
-47.846
-47.747
-47.68
-47.647
-47.648
-47.684
-47.755
-47.861
-48.002
-48.177
-48.384
-48.624
-48.894
-49.194
-49.52
-49.871
-50.244
-50.635
-51.042
-51.459
-51.882
-52.305
-52.724
-53.131
-53.52
-53.885
-54.22
-54.516
-54.768
-54.967
-55.108
-55.184
-55.187
-55.11
-54.947
-54.691
-54.338
-53.881
-53.316
-52.639
-51.845
-50.933
-49.9
-48.743
-47.463
-46.058
-44.528
-42.876
-41.103
-39.213
-37.21
-35.098
-32.884
-30.576
-28.181
-25.708
-23.168
-20.57
-17.926
-15.248
-12.547
-9.838
-7.133
-4.447
-1.795
0.806
3.341
5.794
8.15
10.393
12.508
14.483
16.306
17.967
19.456
20.764
21.882
22.801
23.513
24.013
24.295
24.356
24.191
23.803
23.197
22.377
21.351
20.123
18.688
17.052
15.221
13.202
11.008
8.656
6.168
3.575
0.923
-1.747
-4.392
-6.978
-9.479
-11.865
-14.102
-16.153
-17.974
-19.536
-20.821
-21.808
-22.48
-22.844
-22.929
-22.795
-22.535
-22.222
-21.913
-21.664
-21.534
-21.593
-21.917
-22.581
-23.627
-25.099
-27.071
-29.546
-32.452
-35.612
-38.667
-41.236
-43.02
-43.667
-42.803
-40.342
-36.361
-31.177
-25.586
-20.24
-15.53
-12.054
-10.235
-9.842
-10.359
-10.698
-8.914
-3.392
7.236
24.717
50.33
84.442
126.847
176.23
229.951
285.208
338.872
387.095
426.013
452.336
463.487
457.711
435.672
399.1
349.195
289.117
220.976
146.897
73.91
7.908
-45.059
-79.405
-97.807
-103.607
-100.279
-93.232
-82.829
-69.907
-57.051
-44.853
-35.119
-29.194
-26.527
-26.599
-28.596
-31.107
-32.891
-33.336
-32.179
-29.533
-25.874
-21.61
-17.052
-12.677
-8.984
-6.221
-4.49
-3.734
-3.734
-4.325
-5.395
-6.793
-8.385
-10.056
-11.684
-13.179
-14.475
-15.517
-16.267
-16.704
-16.81
-16.581
-16.034
-15.2
-14.122
-12.845
-11.401
-9.817
-8.115
-6.327
-4.494
-2.657
-0.854
0.9
2.589
4.188
5.678
7.048
8.305
9.49
10.629
11.714
12.774
13.876
15.073
16.426
17.96
19.617
21.39
23.365
25.489
27.509
29.365
31.151
32.839
34.703
36.279
35.909
33.838
31.636
31.717
38.79
52.879
69.182
83.017
87.707
82.393
73.45
65.829
64.747
71.44
81.135
90.794
98.474
103.434
107.595
111.893
116.214
120.608
124.765
128.572
132.292
136.006
139.645
143.205
146.688
150.077
153.372
156.535
159.47
162.121
164.474
166.517
168.266
169.74
170.941
171.86
172.478
172.772
172.735
172.341
171.553
170.329
168.611
166.385
163.687
160.556
157.007
153.041
148.617
143.684
138.232
132.269
125.817
118.908
111.577
103.882
95.919
87.807
79.662
71.562
63.536
55.602
47.807
40.215
32.923
26.039
19.63
13.742
8.421
3.691
-0.442
-3.996
-7.04
-9.676
-11.987
-14.03
-15.831
-17.399
-18.767
-19.982
-21.102
-22.196
-23.31
-24.477
-25.737
-27.122
-28.64
-30.284
-32.014
-33.759
-35.471
-37.123
-38.699
-40.199
-41.617
-42.938
-44.154
-45.258
-46.243
-47.11
-47.85
-48.457
-48.934
-49.296
-49.569
-49.792
-49.995
-50.194
-50.406
-50.636
-50.891
-51.178
-51.497
-51.843
-52.213
-52.605
-53.022
-53.466
-53.937
-54.43
-54.941
-55.461
-55.982
-56.501
-57.012
-57.511
-57.997
-58.466
-58.918
-59.355
-59.779
-60.188
-60.582
-60.959
-61.318
-61.658
-61.978
-62.277
-62.555
-62.811
-63.047
-63.262
-63.459
-63.639
-63.802
-63.951
-64.086
-64.209
-64.322
-64.426
-64.522
-64.612
-64.697
-64.779
-64.858
-64.936
-65.014
-65.094
-65.176
-65.261
-65.349
-65.443
-65.541
-65.646
-65.757
-65.876
-66.003
-66.139
-66.285
-66.443
-66.611
-66.792
-66.985
-67.191
-67.408
-67.639
-67.881
-68.136
-68.403
-68.683
-68.974
-69.278
-69.594
-69.922
-70.261
-70.613
-70.977
-71.352
-71.738
-72.134
-72.541
-72.957
-73.381
-73.813
-74.25
-74.691
-75.134
-75.577
-76.016
-76.45
-76.874
-77.287
-77.684
-78.062
-78.417
-78.747
-79.046
-79.311
-79.538
-79.723
-79.862
-79.949
-79.981
-79.953
-79.861
-79.701
-79.469
-79.161
-78.773
-78.303
-77.747
-77.102
-76.366
-75.537
-74.613
-73.594
-72.479
-71.269
-69.965
-68.569
-67.081
-65.507
-63.849
-62.113
-60.301
-58.42
-56.477
-54.478
-52.43
-50.342
-48.222
-46.082
-43.931
-41.782
-39.646
-37.537
-35.468
-33.45
-31.496
-29.62
-27.83
-26.138
-24.553
-23.085
-21.744
-20.542
-19.488
-18.592
-17.861
-17.304
-16.926
-16.733
-16.724
-16.898
-17.254
-17.793
-18.525
-19.454
-20.581
-21.903
-23.417
-25.112
-26.974
-28.976
-31.082
-33.253
-35.455
-37.655
-39.835
-41.969
-44.032
-45.988
-47.795
-49.418
-50.833
-52.022
-52.962
-53.651
-54.113
-54.4
-54.595
-54.779
-55.006
-55.324
-55.791
-56.468
-57.425
-58.746
-60.479
-62.692
-65.484
-68.86
-72.756
-77.004
-81.237
-85.068
-88.19
-90.2
-90.683
-89.555
-86.88
-83.035
-78.893
-75.112
-72.099
-70.447
-70.558
-72.219
-74.891
-77.301
-77.328
-73.32
-63.798
-46.942
-21.502
13.074
56.897
108.649
165.781
226.13
285.926
340.483
386.956
421.681
443.323
453.225
449.203
429.798
392.949
333.897
254.093
158.987
57.792
-33.721
-103.435
-145.893
-162.914
-164.77
-160.766
-155.525
-149.152
-137.766
-120.26
-98.878
-76.667
-57.536
-43.305
-33.823
-29.292
-29.326
-32.67
-38.139
-44.42
-50.118
-54.731
-58.078
-59.585
-59.043
-56.712
-52.985
-48.596
-44.411
-40.786
-37.863
-35.893
-34.905
-34.841
-35.617
-36.898
-38.252
-39.437
-40.32
-40.818
-40.954
-40.734
-40.132
-39.2
-38.014
-36.629
-35.091
-33.418
-31.602
-29.651
-27.599
-25.484
-23.357
-21.263
-19.225
-17.256
-15.364
-13.554
-11.828
-10.181
-8.599
-7.064
-5.56
-4.077
-2.608
-1.142
0.337
1.853
3.426
5.079
6.825
8.678
10.654
12.764
15.02
17.429
19.993
22.717
25.611
28.683
31.944
35.396
39.03
42.84
46.821
50.967
55.268
59.711
64.274
68.946
73.726
78.611
83.603
88.686
93.836
99.027
104.232
109.435
114.633
119.815
124.954
130.038
135.058
140.009
144.901
149.711
154.384
158.871
163.123
167.106
170.811
174.218
177.307
180.05
182.414
184.378
185.936
187.068
187.737
187.911
187.54
186.621
185.202
183.318
181.006
178.292
175.182
171.697
167.872
163.737
159.317
154.636
149.704
144.553
139.237
133.805
128.32
122.809
117.265
111.69
106.091
100.48
94.881
89.307
83.759
78.25
72.806
67.451
62.212
57.105
52.13
47.288
42.577
38.009
33.607
29.389
25.368
21.554
17.954
14.577
11.437
8.537
5.869
3.428
1.203
-0.811
-2.615
-4.214
-5.615
-6.826
-7.859
-8.724
-9.428
-9.985
-10.407
-10.707
-10.902
-11.002
-11.012
-10.944
-10.813
-10.619
-10.366
-10.061
-9.699
-9.292
-8.873
-8.444
-8.002
-7.594
-7.24
-6.948
-6.761
-6.672
-6.609
-6.577
-6.606
-6.549
-6.283
-5.937
-5.477
-4.831
-4.423
-3.55
-1.314
1.116
3.365
3.591
-1.547
-9.985
-18.738
-24.661
-21.881
-11.397
1.232
12.247
15.727
10.377
1.79
-6.778
-12.012
-11.662
-9.017
-6.108
-3.571
-2.699
-2.483
-2.05
-1.71
-1.299
-0.877
-0.669
-0.539
-0.372
-0.203
-0.021
0.208
0.468
0.741
1.021
1.287
1.512
1.706
1.872
2.001
2.094
2.149
2.165
2.143
2.084
1.985
1.845
1.662
1.436
1.165
0.85
0.49
0.085
-0.365
-0.86
-1.397
-1.977
-2.598
-3.259
-3.959
-4.698
-5.474
-6.286
-7.133
-8.012
-8.923
-9.863
-10.83
-11.821
-12.835
-13.87
-14.923
-15.994
-17.08
-18.18
-19.293
-20.415
-21.545
-22.681
-23.818
-24.954
-26.085
-27.207
-28.317
-29.411
-30.485
-31.536
-32.56
-33.551
-34.507
-35.422
-36.292
-37.112
-37.876
-38.579
-39.216
-39.784
-40.278
-40.694
-41.03
-41.282
-41.447
-41.523
-41.507
-41.397
-41.189
-40.883
-40.479
-39.975
-39.373
-38.674
-37.881
-36.998
-36.029
-34.979
-33.854
-32.66
-31.403
-30.09
-28.731
-27.333
-25.905
-24.46
-23.007
-21.56
-20.134
-18.743
-17.401
-16.121
-14.918
-13.803
-12.79
-11.887
-11.104
-10.449
-9.932
-9.565
-9.353
-9.306
-9.426
-9.719
-10.187
-10.833
-11.653
-12.644
-13.799
-15.116
-16.595
-18.239
-20.053
-22.035
-24.179
-26.479
-28.928
-31.515
-34.222
-37.026
-39.888
-42.78
-45.671
-48.533
-51.336
-54.036
-56.589
-58.951
-61.078
-62.936
-64.508
-65.77
-66.71
-67.325
-67.607
-67.581
-67.307
-66.847
-66.285
-65.71
-65.191
-64.848
-64.856
-65.299
-66.16
-67.309
-68.452
-69.336
-69.832
-69.75
-68.823
-66.972
-64.383
-61.587
-59.513
-58.965
-60.306
-63.752
-69.539
-77.521
-86.971
-96.525
-104.029
-107.292
-104.851
-95.479
-77.857
-51.216
-15.523
28.424
78.539
132.229
187.277
241.112
290.505
332.395
363.911
382.708
387.647
378.108
353.71
315.199
264.599
204.683
138.962
71.075
4.432
-57.21
-110.258
-152.068
-181.144
-197.302
-201.361
-194.456
-178.368
-155.968
-130.496
-105.132
-82.525
-64.11
-50.728
-43.209
-41.658
-45.226
-52.517
-61.61
-70.705
-78.887
-85.535
-89.906
-91.686
-90.993
-88.28
-84.54
-80.801
-77.541
-75.017
-73.486
-72.993
-73.505
-74.908
-76.792
-78.672
-80.305
-81.566
-82.404
-82.869
-82.965
-82.67
-82.044
-81.172
-80.112
-78.907
-77.565
-76.071
-74.439
-72.706
-70.915
-69.117
-67.344
-65.603
-63.902
-62.24
-60.618
-59.034
-57.483
-55.946
-54.412
-52.87
-51.316
-49.748
-48.158
-46.531
-44.85
-43.093
-41.246
-39.296
-37.228
-35.032
-32.696
-30.213
-27.578
-24.788
-21.841
-18.735
-15.462
-12.018
-8.393
-4.585
-0.594
3.574
7.907
12.387
16.989
21.686
26.448
31.25
36.072
40.904
45.742
50.585
55.433
60.278
65.099
69.878
74.6
79.254
83.832
88.34
92.791
97.205
101.61
106.021
110.435
114.828
119.155
123.357
127.365
131.125
134.597
137.746
140.544
142.959
144.962
146.512
147.564
148.058
147.925
147.117
145.604
143.393
140.519
137.043
133.046
128.601
123.77
118.606
113.155
107.461
101.567
95.519
89.369
83.184
77.046
71.025
65.179
59.541
54.122
48.91
43.877
38.998
34.256
29.638
25.146
20.781
16.552
12.466
8.534
4.754
1.112
-2.402
-5.799
-9.082
-12.242
-15.262
-18.121
-20.797
-23.274
-25.537
-27.582
-29.41
-31.024
-32.434
-33.655
-34.697
-35.569
-36.278
-36.83
-37.233
-37.5
-37.641
-37.67
-37.602
-37.451
-37.231
-36.954
-36.632
-36.273
-35.885
-35.473
-35.044
-34.604
-34.156
-33.709
-33.267
-32.836
-32.421
-32.027
-31.659
-31.32
-31.012
-30.738
-30.497
-30.291
-30.117
-29.976
-29.866
-29.784
-29.728
-29.696
-29.685
-29.691
-29.713
-29.746
-29.786
-29.831
-29.875
-29.916
-29.949
-29.971
-29.978
-29.966
-29.933
-29.876
-29.791
-29.677
-29.531
-29.35
-29.132
-28.876
-28.58
-28.242
-27.862
-27.44
-26.975
-26.47
-25.925
-25.343
-24.725
-24.075
-23.395
-22.688
-21.957
-21.207
-20.442
-19.664
-18.879
-18.091
-17.305
-16.525
-15.758
-15.008
-14.28
-13.579
-12.911
-12.28
-11.692
-11.15
-10.66
-10.226
-9.851
-9.54
-9.295
-9.118
-9.013
-8.981
-9.022
-9.137
-9.326
-9.587
-9.919
-10.32
-10.788
-11.319
-11.91
-12.558
-13.257
-14.004
-14.793
-15.617
-16.473
-17.352
-18.248
-19.154
-20.062
-20.966
-21.857
-22.727
-23.568
-24.372
-25.133
-25.841
-26.491
-27.073
-27.583
-28.012
-28.357
-28.61
-28.768
-28.826
-28.779
-28.627
-28.365
-27.994
-27.511
-26.917
-26.212
-25.397
-24.473
-23.444
-22.311
-21.078
-19.75
-18.33
-16.826
-15.242
-13.586
-11.865
-10.087
-8.262
-6.397
-4.503
-2.589
-0.665
1.259
3.171
5.061
6.919
8.733
10.492
12.185
13.798
15.322
16.746
18.059
19.251
20.313
21.238
22.02
22.655
23.135
23.456
23.615
23.607
23.43
23.079
22.55
21.842
20.956
19.896
18.669
17.279
15.73
14.027
12.171
10.168
8.025
5.748
3.344
0.828
-1.778
-4.442
-7.122
-9.785
-12.402
-14.942
-17.385
-19.701
-21.859
-23.839
-25.618
-27.178
-28.503
-29.574
-30.38
-30.934
-31.269
-31.446
-31.54
-31.615
-31.726
-31.915
-32.222
-32.713
-33.448
-34.479
-35.842
-37.525
-39.531
-41.908
-44.618
-47.526
-50.399
-52.815
-54.359
-54.858
-54.164
-52.123
-48.794
-44.27
-38.827
-33.282
-28.428
-24.559
-21.725
-19.664
-17.707
-15.292
-11.606
-4.996
6.254
23.327
46.863
76.612
111.627
150.859
192.655
234.219
272.251
303.381
324.616
334.04
330.166
311.818
279.178
233.597
178.184
117.956
56.604
-3.163
-59.525
-113.728
-163.91
-204.916
-231.084
-232.885
-206.884
-159.507
-101.422
-49.687
-17.102
-5.247
-10.036
-21.521
-30.872
-35.678
-36.813
-37.802
-41.162
-46.825
-53.466
-58.655
-61.089
-60.89
-58.616
-55.464
-52.456
-49.871
-47.89
-46.725
-46.374
-46.817
-47.983
-49.508
-50.978
-52.198
-53.058
-53.514
-53.626
-53.406
-52.839
-51.986
-50.926
-49.711
-48.388
-46.964
-45.432
-43.811
-42.138
-40.458
-38.811
-37.214
-35.674
-34.193
-32.771
-31.407
-30.099
-28.837
-27.611
-26.413
-25.237
-24.079
-22.934
-21.791
-20.634
-19.444
-18.205
-16.902
-15.523
-14.057
-12.494
-10.825
-9.042
-7.141
-5.114
-2.953
-0.653
1.795
4.396
7.154
10.073
13.153
16.394
19.794
23.349
27.054
30.902
34.887
38.999
43.228
47.564
51.994
56.504
61.078
65.701
70.354
75.018
79.673
84.299
88.874
93.376
97.784
102.075
106.227
110.218
114.028
117.636
121.021
124.164
127.046
129.652
131.964
133.969
135.654
137.007
138.021
138.687
138.999
138.954
138.55
137.785
136.662
135.183
133.353
131.178
128.667
125.831
122.68
119.229
115.493
111.489
107.234
102.747
98.049
93.16
88.102
82.897
77.568
72.137
66.627
61.062
55.463
49.854
44.254
38.686
33.169
27.722
22.363
17.109
11.977
6.981
2.136
-2.546
-7.053
-11.374
-15.502
-19.426
-23.142
-26.644
-29.928
-32.992
-35.835
-38.456
-40.857
-43.04
-45.01
-46.772
-48.33
-49.691
-50.864
-51.857
-52.677
-53.335
-53.84
-54.202
-54.429
-54.533
-54.523
-54.408
-54.198
-53.901
-53.527
-53.084
-52.582
-52.027
-51.428
-50.793
-50.127
-49.438
-48.733
-48.016
-47.293
-46.569
-45.848
-45.134
-44.43
-43.739
-43.063
-42.403
-41.759
-41.132
-40.521
-39.926
-39.346
-38.779
-38.224
-37.68
-37.145
-36.617
-36.094
-35.576
-35.06
-34.546
-34.031
-33.516
-32.999
-32.479
-31.956
-31.43
-30.9
-30.366
-29.828
-29.286
-28.741
-28.193
-27.641
-27.088
-26.533
-25.978
-25.425
-24.876
-24.333
-23.798
-23.274
-22.765
-22.272
-21.799
-21.35
-20.927
-20.533
-20.171
-19.843
-19.554
-19.304
-19.096
-18.932
-18.813
-18.741
-18.716
-18.738
-18.807
-18.924
-19.087
-19.295
-19.548
-19.845
-20.184
-20.563
-20.98
-21.434
-21.921
-22.438
-22.983
-23.552
-24.14
-24.744
-25.36
-25.984
-26.61
-27.235
-27.853
-28.461
-29.056
-29.63
-30.179
-30.697
-31.177
-31.616
-32.015
-32.366
-32.662
-32.91
-33.113
-33.271
-33.395
-33.48
-33.501
-33.462
-33.37
-33.187
-32.898
-32.498
-31.947
-31.257
-30.506
-29.694
-28.796
-27.962
-27.311
-26.714
-26.213
-25.875
-25.263
-25.069
-26.168
-27.391
-28.399
-27.382
-20.997
-11.34
-1.443
5.545
3.722
-5.951
-17.844
-28.15
-31.023
-25.028
-15.432
-5.509
1.342
2.996
2.28
1.637
3.517
8.701
14.5
17.379
11.666
-3.715
-22.949
-38.936
-41.481
-25.994
-0.231
25.584
40.441
36.858
20.301
0.325
-15.788
-22.02
-20.043
-15.567
-11.341
-9.501
-10.126
-11.158
-12.09
-13.029
-13.848
-14.839
-16.027
-17.116
-18.024
-18.756
-19.242
-19.465
-19.49
-19.402
-19.318
-19.351
-19.542
-19.879
-20.365
-21.046
-21.98
-23.237
-24.882
-26.912
-29.332
-32.196
-35.475
-39.046
-42.703
-46.054
-48.721
-50.574
-51.503
-51.406
-50.438
-48.727
-46.432
-44.025
-41.794
-39.611
-37.393
-34.945
-31.611
-26.932
-20.537
-11.734
-0.167
14.173
31.576
52.269
75.875
102.17
131.1
162.115
194.631
228.061
260.034
287.848
310.347
325.336
332.571
332.244
320.841
296.857
257.557
200.99
131.458
53.392
-24.504
-92.829
-146.539
-180.982
-197.836
-200.21
-189.903
-171.061
-144.391
-111.411
-76.145
-41.097
-10.152
13.174
27.861
33.613
31.086
22.163
8.967
-6.319
-21.323
-34.153
-43.502
-49.593
-53.136
-53.638
-51.659
-46.107
-35.705
-24.091
-13.489
-6.871
-7.973
-13.223
-19.535
-24.604
-24.78
-22.1
-18.807
-15.403
-13.379
-11.982
-10.182
-8.253
-6.146
-3.979
-1.989
-0.043
1.979
4.022
6.039
8.013
9.921
11.746
13.487
15.123
16.632
18.023
19.313
20.504
21.598
22.596
23.496
24.305
25.036
25.705
26.328
26.924
27.51
28.105
28.726
29.389
30.102
30.877
31.726
32.664
33.713
34.889
36.204
37.667
39.282
41.052
42.979
45.053
47.252
49.557
51.946
54.411
56.955
59.578
62.277
65.049
67.885
70.79
73.784
76.881
80.086
83.409
86.854
90.45
94.247
98.28
102.573
107.126
111.908
116.891
122.045
127.325
132.676
138.019
143.248
148.275
153.036
157.457
161.475
165.001
167.912
170.114
171.54
172.144
171.918
170.857
168.955
166.242
162.772
158.628
153.924
148.748
143.163
137.237
131.034
124.637
118.158
111.682
105.271
98.977
92.834
86.875
81.137
75.628
70.328
65.206
60.207
55.301
50.482
45.74
41.07
36.459
31.884
27.338
22.83
18.367
13.955
9.6
5.303
1.077
-3.048
-7.042
-10.87
-14.507
-17.942
-21.165
-24.168
-26.947
-29.498
-31.826
-33.942
-35.856
-37.574
-39.104
-40.449
-41.62
-42.632
-43.498
-44.232
-44.848
-45.358
-45.773
-46.104
-46.363
-46.557
-46.693
-46.778
-46.816
-46.817
-46.786
-46.733
-46.662
-46.581
-46.495
-46.411
-46.333
-46.266
-46.212
-46.174
-46.153
-46.151
-46.17
-46.21
-46.269
-46.35
-46.449
-46.568
-46.704
-46.856
-47.021
-47.199
-47.386
-47.58
-47.779
-47.98
-48.181
-48.38
-48.575
-48.763
-48.943
-49.112
-49.27
-49.413
-49.541
-49.652
-49.745
-49.818
-49.871
-49.902
-49.911
-49.898
-49.861
-49.802
-49.719
-49.614
-49.486
-49.336
-49.165
-48.973
-48.762
-48.532
-48.284
-48.02
-47.742
-47.45
-47.147
-46.833
-46.511
-46.183
-45.85
-45.515
-45.178
-44.842
-44.509
-44.18
-43.856
-43.539
-43.23
-42.931
-42.643
-42.367
-42.104
-41.857
-41.625
-41.41
-41.213
-41.036
-40.878
-40.74
-40.622
-40.525
-40.449
-40.393
-40.357
-40.34
-40.343
-40.362
-40.398
-40.448
-40.511
-40.584
-40.665
-40.751
-40.839
-40.927
-41.011
-41.089
-41.157
-41.212
-41.25
-41.269
-41.264
-41.232
-41.169
-41.07
-40.932
-40.752
-40.525
-40.248
-39.918
-39.531
-39.086
-38.579
-38.009
-37.374
-36.67
-35.899
-35.059
-34.149
-33.171
-32.125
-31.012
-29.835
-28.597
-27.301
-25.951
-24.55
-23.105
-21.619
-20.1
-18.554
-16.988
-15.409
-13.827
-12.253
-10.698
-9.171
-7.685
-6.248
-4.872
-3.568
-2.345
-1.209
-0.17
0.764
1.584
2.276
2.833
3.246
3.511
3.622
3.574
3.359
2.977
2.428
1.713
0.828
-0.234
-1.486
-2.932
-4.567
-6.382
-8.362
-10.49
-12.754
-15.13
-17.586
-20.093
-22.622
-25.153
-27.671
-30.149
-32.551
-34.83
-36.934
-38.833
-40.513
-41.97
-43.215
-44.262
-45.133
-45.863
-46.486
-47.046
-47.594
-48.183
-48.874
-49.733
-50.795
-52.141
-53.88
-56.018
-58.502
-61.155
-63.641
-65.772
-67.543
-68.925
-69.906
-70.546
-70.851
-71.083
-71.805
-73.13
-74.696
-75.877
-75.835
-73.939
-69.926
-63.401
-53.655
-40.444
-24.109
-5.516
14.188
34.377
55.11
76.755
99.405
123.062
147.93
174.355
202.427
231.385
259.449
283.879
301.939
311.368
309.997
296.178
269.342
230.081
180.314
123.358
62.992
3.015
-52.392
-99.468
-135.71
-159.758
-171.479
-171.841
-162.291
-144.937
-122.914
-99.599
-77.67
-58.914
-44.253
-34.196
-29.23
-29.179
-32.887
-38.593
-44.608
-49.923
-54.164
-57.025
-58.009
-56.908
-53.994
-50.037
-46.055
-42.629
-39.886
-37.875
-36.697
-36.417
-37.02
-38.251
-39.627
-40.822
-41.715
-42.27
-42.52
-42.468
-42.07
-41.332
-40.336
-39.154
-37.837
-36.411
-34.861
-33.19
-31.43
-29.618
-27.804
-26.031
-24.319
-22.678
-21.115
-19.631
-18.228
-16.906
-15.654
-14.453
-13.291
-12.159
-11.052
-9.967
-8.893
-7.816
-6.719
-5.585
-4.402
-3.156
-1.836
-0.429
1.078
2.692
4.421
6.27
8.243
10.345
12.581
14.958
17.483
20.167
23.016
26.032
29.21
32.543
36.014
39.603
43.284
47.031
50.821
54.637
58.473
62.328
66.204
70.105
74.024
77.944
81.85
85.727
89.567
93.365
97.128
100.873
104.623
108.41
112.249
116.141
120.063
123.967
127.797
131.481
134.962
138.199
141.153
143.794
146.088
148.002
149.492
150.507
150.985
150.851
150.05
148.552
146.357
143.499
140.034
136.044
131.6
126.764
121.587
116.114
110.386
104.445
98.336
92.111
85.833
79.584
73.433
67.437
61.629
56.017
50.589
45.313
40.166
35.127
30.185
25.341
20.598
15.965
11.451
7.068
2.816
-1.316
-5.338
-9.259
-13.078
-16.784
-20.36
-23.778
-27.017
-30.056
-32.88
-35.482
-37.861
-40.018
-41.963
-43.705
-45.256
-46.62
-47.803
-48.809
-49.644
-50.318
-50.841
-51.226
-51.487
-51.638
-51.691
-51.66
-51.555
-51.386
-51.16
-50.885
-50.566
-50.211
-49.825
-49.417
-48.994
-48.563
-48.131
-47.704
-47.289
-46.891
-46.512
-46.158
-45.829
-45.528
-45.257
-45.016
-44.807
-44.63
-44.485
-44.372
-44.291
-44.242
-44.223
-44.234
-44.271
-44.334
-44.42
-44.527
-44.652
-44.793
-44.948
-45.113
-45.287
-45.466
-45.649
-45.832
-46.013
-46.189
-46.357
-46.514
-46.658
-46.786
-46.896
-46.987
-47.058
-47.108
-47.134
-47.138
-47.117
-47.071
-47
-46.903
-46.781
-46.632
-46.459
-46.26
-46.038
-45.794
-45.528
-45.243
-44.94
-44.621
-44.288
-43.942
-43.587
-43.224
-42.856
-42.486
-42.117
-41.751
-41.391
-41.039
-40.698
-40.37
-40.058
-39.762
-39.486
-39.229
-38.995
-38.784
-38.599
-38.439
-38.306
-38.201
-38.124
-38.075
-38.054
-38.061
-38.094
-38.152
-38.234
-38.339
-38.464
-38.607
-38.765
-38.936
-39.117
-39.304
-39.494
-39.683
-39.867
-40.043
-40.205
-40.35
-40.474
-40.573
-40.641
-40.676
-40.672
-40.627
-40.536
-40.394
-40.199
-39.946
-39.633
-39.255
-38.812
-38.298
-37.714
-37.058
-36.328
-35.525
-34.648
-33.698
-32.674
-31.58
-30.417
-29.187
-27.894
-26.542
-25.133
-23.675
-22.172
-20.631
-19.059
-17.462
-15.851
-14.234
-12.621
-11.02
-9.443
-7.899
-6.398
-4.951
-3.567
-2.254
-1.023
0.118
1.158
2.087
2.898
3.583
4.136
4.548
4.81
4.916
4.863
4.651
4.276
3.734
3.017
2.122
1.054
-0.18
-1.571
-3.108
-4.783
-6.574
-8.448
-10.371
-12.307
-14.225
-16.106
-17.923
-19.643
-21.233
-22.653
-23.875
-24.898
-25.715
-26.318
-26.715
-26.917
-26.956
-26.915
-26.877
-26.921
-27.121
-27.528
-28.179
-29.108
-30.37
-31.989
-33.916
-36.105
-38.529
-41.133
-43.923
-46.931
-49.96
-52.858
-55.659
-57.959
-59.174
-59.13
-57.356
-54.046
-50.916
-47.908
-43.755
-36.85
-23.466
-3.301
19.169
38.029
46.587
42.617
31.46
23.38
27.989
50.671
89.988
137.33
185.617
231.051
273.932
319.57
367.918
412.767
443.081
445.211
413.972
354.545
279.334
202.533
133.231
73.534
21.206
-24.643
-62.935
-91.742
-108.652
-113.92
-110.203
-100.076
-86.591
-73.015
-61.23
-52.377
-47.165
-45.209
-45.663
-47.861
-50.736
-52.926
-53.718
-52.797
-50.139
-46.241
-41.612
-36.61
-31.731
-27.497
-24.184
-21.925
-20.713
-20.358
-20.704
-21.629
-22.981
-24.62
-26.429
-28.291
-30.098
-31.758
-33.2
-34.367
-35.225
-35.755
-35.947
-35.804
-35.352
-34.632
-33.678
-32.529
-31.213
-29.754
-28.186
-26.553
-24.896
-23.264
-21.685
-20.178
-18.756
-17.426
-16.188
-15.036
-13.955
-12.922
-11.922
-10.943
-9.975
-9.009
-8.034
-7.034
-5.999
-4.915
-3.769
-2.548
-1.238
0.173
1.692
3.326
5.081
6.96
8.969
11.111
13.389
15.803
18.36
21.067
23.935
26.964
30.147
33.469
36.919
40.485
44.154
47.907
51.721
55.577
59.468
63.397
67.372
71.386
75.425
79.46
83.464
87.423
91.335
95.199
99.008
102.751
106.426
110.043
113.624
117.167
120.64
123.982
127.132
130.052
132.72
135.125
137.254
139.079
140.569
141.697
142.451
142.813
142.756
142.23
141.179
139.581
137.46
134.876
131.889
128.537
124.843
120.829
116.524
111.97
107.2
102.24
97.103
91.818
86.428
81
75.603
70.279
65.037
59.859
54.731
49.656
44.643
39.701
34.829
30.024
25.299
20.677
16.183
11.831
7.623
3.548
-0.407
-4.242
-7.943
-11.49
-14.867
-18.062
-21.07
-23.882
-26.485
-28.873
-31.05
-33.026
-34.815
-36.425
-37.861
-39.126
-40.225
-41.165
-41.956
-42.609
-43.134
-43.541
-43.842
-44.049
-44.176
-44.234
-44.233
-44.181
-44.085
-43.952
-43.792
-43.613
-43.42
-43.222
-43.023
-42.833
-42.655
-42.498
-42.363
-42.255
-42.177
-42.131
-42.118
-42.14
-42.196
-42.286
-42.409
-42.565
-42.752
-42.969
-43.213
-43.482
-43.774
-44.087
-44.416
-44.759
-45.111
-45.47
-45.831
-46.191
-46.545
-46.89
-47.222
-47.537
-47.832
-48.103
-48.347
-48.56
-48.738
-48.88
-48.983
-49.045
-49.063
-49.038
-48.967
-48.85
-48.687
-48.479
-48.226
-47.928
-47.586
-47.202
-46.777
-46.312
-45.81
-45.274
-44.705
-44.106
-43.482
-42.834
-42.166
-41.483
-40.787
-40.082
-39.372
-38.662
-37.955
-37.255
-36.566
-35.892
-35.236
-34.603
-33.994
-33.414
-32.865
-32.349
-31.869
-31.428
-31.026
-30.667
-30.351
-30.079
-29.853
-29.674
-29.541
-29.454
-29.413
-29.418
-29.467
-29.56
-29.695
-29.871
-30.085
-30.335
-30.619
-30.935
-31.279
-31.648
-32.039
-32.45
-32.876
-33.315
-33.763
-34.216
-34.672
-35.126
-35.575
-36.015
-36.442
-36.852
-37.24
-37.603
-37.937
-38.237
-38.5
-38.722
-38.898
-39.027
-39.103
-39.124
-39.085
-38.985
-38.82
-38.588
-38.287
-37.916
-37.471
-36.953
-36.362
-35.695
-34.954
-34.138
-33.247
-32.283
-31.246
-30.139
-28.963
-27.721
-26.417
-25.055
-23.64
-22.177
-20.672
-19.131
-17.561
-15.97
-14.365
-12.754
-11.147
-9.552
-7.979
-6.441
-4.948
-3.511
-2.143
-0.855
0.344
1.442
2.43
3.302
4.052
4.673
5.158
5.501
5.695
5.734
5.613
5.327
4.874
4.252
3.463
2.515
1.413
0.161
-1.238
-2.788
-4.491
-6.343
-8.338
-10.47
-12.72
-15.067
-17.479
-19.914
-22.333
-24.704
-26.996
-29.187
-31.249
-33.151
-34.864
-36.356
-37.592
-38.545
-39.192
-39.538
-39.613
-39.462
-39.144
-38.727
-38.256
-37.798
-37.386
-37.001
-36.669
-36.438
-36.34
-36.482
-36.99
-37.854
-39.151
-41.045
-43.257
-45.303
-46.87
-47.346
-46.913
-46.902
-47.053
-46.479
-43.476
-34.385
-19.729
-3.168
10.174
12.474
1.795
-18.747
-42.382
-57.011
-54.643
-31.245
12.153
66.476
123.378
177.171
225.877
273.126
322.278
370.717
411.174
434.906
433.282
405.837
359.608
301.803
240.92
181.752
124.106
69.366
19.43
-23.385
-55.683
-76.291
-86.009
-86.414
-80.048
-69.472
-57.249
-45.924
-37.14
-31.672
-29.64
-30.545
-33.628
-38.058
-42.682
-46.325
-48.361
-48.576
-47.12
-44.442
-40.954
-37.021
-33.099
-29.618
-26.824
-24.819
-23.561
-22.91
-22.746
-22.965
-23.472
-24.182
-24.976
-25.756
-26.425
-26.883
-27.088
-27.04
-26.687
-25.974
-25.009
-23.928
-22.675
-21.293
-19.839
-18.058
-16.749
-16.685
-16.819
-16.863
-14.877
-8.538
-0.503
7.461
12.734
11.731
7.614
3.067
-0.06
1.292
4.968
8.781
12.254
14.057
14.982
16.049
17.082
18.228
19.435
20.515
21.616
22.858
24.217
25.697
27.318
29.084
30.994
33.052
35.245
37.557
40.003
42.595
45.332
48.218
51.252
54.429
57.748
61.205
64.792
68.498
72.312
76.22
80.21
84.267
88.373
92.513
96.668
100.819
104.946
109.029
113.048
116.983
120.812
124.514
128.07
131.46
134.664
137.663
140.44
142.977
145.257
147.266
148.989
150.414
151.53
152.326
152.794
152.928
152.724
152.18
151.295
150.071
148.511
146.621
144.408
141.882
139.051
135.929
132.53
128.867
124.957
120.818
116.468
111.925
107.209
102.34
97.338
92.226
87.022
81.749
76.427
71.077
65.719
60.373
55.06
49.797
44.604
39.496
34.49
29.602
24.845
20.233
15.777
11.486
7.371
3.439
-0.303
-3.852
-7.203
-10.354
-13.304
-16.054
-18.604
-20.957
-23.117
-25.087
-26.873
-28.481
-29.916
-31.186
-32.298
-33.261
-34.082
-34.772
-35.338
-35.79
-36.137
-36.389
-36.554
-36.642
-36.663
-36.624
-36.536
-36.407
-36.245
-36.059
-35.856
-35.643
-35.429
-35.218
-35.017
-34.831
-34.665
-34.523
-34.41
-34.327
-34.279
-34.267
-34.294
-34.361
-34.47
-34.622
-34.815
-35.052
-35.33
-35.65
-36.011
-36.411
-36.849
-37.323
-37.832
-38.373
-38.943
-39.539
-40.158
-40.795
-41.448
-42.112
-42.782
-43.455
-44.125
-44.788
-45.44
-46.076
-46.692
-47.284
-47.847
-48.377
-48.87
-49.323
-49.732
-50.094
-50.407
-50.667
-50.873
-51.023
-51.115
-51.149
-51.122
-51.034
-50.886
-50.677
-50.408
-50.08
-49.696
-49.257
-48.767
-48.229
-47.647
-47.026
-46.37
-45.684
-44.974
-44.246
-43.505
-42.759
-42.012
-41.273
-40.547
-39.841
-39.16
-38.513
-37.903
-37.337
-36.819
-36.356
-35.952
-35.611
-35.337
-35.134
-35.006
-34.954
-34.982
-35.092
-35.283
-35.558
-35.915
-36.353
-36.872
-37.469
-38.141
-38.885
-39.698
-40.573
-41.508
-42.496
-43.531
-44.607
-45.717
-46.853
-48.008
-49.176
-50.348
-51.516
-52.674
-53.813
-54.926
-56.006
-57.045
-58.036
-58.972
-59.845
-60.648
-61.376
-62.022
-62.579
-63.042
-63.406
-63.667
-63.822
-63.865
-63.795
-63.609
-63.305
-62.882
-62.34
-61.679
-60.899
-60.002
-58.99
-57.866
-56.635
-55.299
-53.864
-52.335
-50.717
-49.018
-47.244
-45.402
-43.501
-41.549
-39.555
-37.531
-35.485
-33.429
-31.375
-29.336
-27.325
-25.356
-23.441
-21.596
-19.832
-18.163
-16.603
-15.161
-13.849
-12.676
-11.651
-10.786
-10.089
-9.571
-9.237
-9.096
-9.153
-9.414
-9.882
-10.552
-11.425
-12.497
-13.768
-15.244
-16.925
-18.807
-20.886
-23.153
-25.594
-28.191
-30.914
-33.721
-36.575
-39.437
-42.276
-45.068
-47.785
-50.395
-52.86
-55.137
-57.197
-59.016
-60.568
-61.832
-62.808
-63.52
-64.02
-64.393
-64.7
-64.984
-65.299
-65.691
-66.217
-66.943
-67.924
-69.189
-70.786
-72.796
-75.225
-78.021
-81.01
-83.841
-86.163
-87.674
-87.995
-86.754
-83.838
-79.287
-73.467
-67.194
-61.135
-55.833
-51.992
-50.055
-49.819
-50.774
-51.77
-50.797
-46.015
-35.555
-16.992
10.573
45.928
87.931
134.523
185.606
244.55
310.872
380.346
443.446
484.932
495.552
472.427
418.769
345.835
262.795
177.988
101.549
38.761
-6.396
-33.461
-49.609
-61.045
-71.344
-81.502
-87.836
-87.985
-83.089
-75.724
-69.308
-65.699
-64.783
-65.828
-67.914
-70.405
-72.613
-73.632
-72.935
-70.397
-66.234
-60.962
-55.068
-48.919
-42.96
-37.653
-33.273
-29.952
-27.683
-26.335
-25.79
-25.948
-26.681
-27.85
-29.349
-31.072
-32.913
-34.777
-36.546
-38.126
-39.461
-40.511
-41.255
-41.682
-41.792
-41.604
-41.155
-40.479
-39.608
-38.572
-37.396
-36.115
-34.771
-33.411
-32.077
-30.8
-29.594
-28.466
-27.416
-26.438
-25.52
-24.641
-23.773
-22.895
-21.988
-21.038
-20.028
-18.942
-17.761
-16.465
-15.039
-13.467
-11.738
-9.84
-7.764
-5.506
-3.062
-0.43
2.386
5.387
8.572
11.938
15.484
19.205
23.097
27.153
31.365
35.724
40.218
44.832
49.552
54.361
59.243
64.18
69.151
74.139
79.122
84.081
88.993
93.838
98.594
103.24
107.755
112.117
116.307
120.307
124.098
127.663
130.986
134.054
136.853
139.371
141.596
143.518
145.131
146.425
147.396
148.039
148.351
148.333
147.984
147.307
146.307
144.988
143.358
141.424
139.197
136.686
133.904
130.863
127.578
124.064
120.336
116.412
112.308
108.042
103.631
99.093
94.445
89.706
84.891
80.019
75.105
70.167
65.221
60.283
55.368
50.492
45.668
40.911
36.233
31.646
27.162
22.792
18.545
14.43
10.456
6.631
2.959
-0.552
-3.898
-7.077
-10.086
-12.924
-15.59
-18.086
-20.412
-22.57
-24.563
-26.396
-28.07
-29.592
-30.965
-32.195
-33.289
-34.252
-35.091
-35.813
-36.426
-36.936
-37.351
-37.679
-37.927
-38.104
-38.216
-38.272
-38.279
-38.246
-38.18
-38.087
-37.976
-37.854
-37.725
-37.597
-37.474
-37.362
-37.263
-37.182
-37.123
-37.087
-37.077
-37.095
-37.142
-37.218
-37.325
-37.462
-37.629
-37.824
-38.047
-38.296
-38.57
-38.866
-39.183
-39.518
-39.869
-40.235
-40.611
-40.995
-41.385
-41.776
-42.166
-42.55
-42.926
-43.291
-43.642
-43.975
-44.288
-44.579
-44.846
-45.087
-45.301
-45.485
-45.639
-45.763
-45.855
-45.915
-45.943
-45.941
-45.908
-45.845
-45.753
-45.633
-45.486
-45.314
-45.116
-44.894
-44.649
-44.383
-44.096
-43.79
-43.467
-43.129
-42.779
-42.419
-42.052
-41.68
-41.306
-40.932
-40.561
-40.194
-39.833
-39.481
-39.139
-38.81
-38.495
-38.197
-37.918
-37.658
-37.42
-37.203
-37.01
-36.84
-36.695
-36.575
-36.48
-36.412
-36.372
-36.361
-36.38
-36.43
-36.51
-36.621
-36.761
-36.929
-37.124
-37.341
-37.577
-37.829
-38.093
-38.366
-38.645
-38.928
-39.211
-39.493
-39.771
-40.041
-40.298
-40.537
-40.751
-40.932
-41.072
-41.165
-41.205
-41.185
-41.101
-40.949
-40.727
-40.431
-40.057
-39.597
-39.038
-38.373
-37.599
-36.716
-35.73
-34.651
-33.495
-32.283
-31.035
-29.768
-28.492
-27.206
-25.9
-24.566
-23.191
-21.773
-20.322
-18.845
-17.347
-15.831
-14.295
-12.724
-11.094
-9.374
-7.525
-5.525
-3.368
-1.07
1.328
3.772
6.194
8.539
10.768
12.845
14.74
16.418
17.845
18.973
19.754
20.127
20.015
19.366
18.14
16.332
13.97
11.112
7.836
4.213
0.304
-3.83
-8.131
-12.528
-16.96
-21.361
-25.67
-29.815
-33.705
-37.255
-40.394
-43.076
-45.293
-47.056
-48.394
-49.329
-49.901
-50.168
-50.203
-50.091
-49.895
-49.654
-49.414
-49.238
-49.207
-49.401
-49.887
-50.68
-51.809
-53.343
-55.276
-57.524
-59.888
-61.99
-63.457
-64.004
-63.283
-60.915
-56.777
-50.951
-43.859
-36.384
-29.297
-23.216
-18.884
-16.853
-17.068
-18.946
-21.158
-21.702
-18.593
-9.736
7.141
33.942
70.462
114.309
162.773
213.593
267.866
328.574
393.964
456.043
500.587
512.563
485.768
425.611
346.806
264.919
189.5
123.092
62.812
7.307
-41.283
-79.832
-105.151
-116.723
-116.602
-107.481
-92.237
-73.797
-55.211
-39.047
-26.734
-18.631
-14.486
-13.76
-15.992
-20.594
-26.193
-31.309
-35.22
-37.767
-39.102
-39.526
-39.058
-37.545
-35.425
-33.444
-31.994
-31.262
-31.204
-31.596
-32.425
-33.849
-35.758
-37.849
-39.88
-41.615
-42.97
-44.005
-44.71
-45.03
-44.953
-44.502
-43.727
-42.709
-41.496
-40.095
-38.522
-36.793
-34.94
-33.014
-31.062
-29.125
-27.233
-25.401
-23.641
-21.963
-20.37
-18.862
-17.428
-16.05
-14.712
-13.404
-12.116
-10.842
-9.568
-8.274
-6.942
-5.555
-4.097
-2.558
-0.922
0.822
2.686
4.68
6.811
9.084
11.506
14.084
16.824
19.73
22.807
26.056
29.477
33.07
36.833
40.761
44.848
49.086
53.467
57.978
62.609
67.346
72.172
77.071
82.026
87.017
92.024
97.026
102.001
106.928
111.783
116.544
121.188
125.693
130.035
134.194
138.148
141.876
145.361
148.583
151.525
154.172
156.51
158.527
160.211
161.554
162.547
163.186
163.467
163.387
162.948
162.151
160.999
159.5
157.659
155.487
152.994
150.193
147.097
143.721
140.081
136.196
132.082
127.759
123.247
118.566
113.736
108.778
103.713
98.562
93.345
88.084
82.797
77.504
72.224
66.975
61.774
56.638
51.581
46.618
41.763
37.028
32.424
27.961
23.648
19.493
15.503
11.682
8.036
4.568
1.279
-1.828
-4.752
-7.495
-10.057
-12.44
-14.647
-16.681
-18.547
-20.248
-21.79
-23.179
-24.42
-25.519
-26.484
-27.321
-28.037
-28.639
-29.134
-29.529
-29.831
-30.047
-30.185
-30.252
-30.253
-30.196
-30.086
-29.932
-29.738
-29.51
-29.255
-28.977
-28.683
-28.377
-28.066
-27.753
-27.444
-27.144
-26.856
-26.586
-26.337
-26.112
-25.915
-25.748
-25.615
-25.517
-25.455
-25.433
-25.449
-25.506
-25.603
-25.74
-25.918
-26.135
-26.391
-26.684
-27.014
-27.377
-27.773
-28.198
-28.651
-29.128
-29.627
-30.145
-30.678
-31.222
-31.774
-32.33
-32.886
-33.438
-33.98
-34.51
-35.022
-35.513
-35.979
-36.416
-36.82
-37.19
-37.522
-37.814
-38.064
-38.271
-38.434
-38.552
-38.624
-38.652
-38.634
-38.574
-38.471
-38.328
-38.146
-37.929
-37.678
-37.398
-37.09
-36.759
-36.407
-36.04
-35.66
-35.272
-34.881
-34.492
-34.109
-33.738
-33.383
-33.049
-32.74
-32.461
-32.217
-32.009
-31.843
-31.721
-31.646
-31.62
-31.646
-31.725
-31.857
-32.044
-32.285
-32.58
-32.929
-33.328
-33.777
-34.273
-34.813
-35.396
-36.017
-36.674
-37.362
-38.076
-38.814
-39.568
-40.335
-41.108
-41.881
-42.648
-43.403
-44.139
-44.851
-45.532
-46.175
-46.775
-47.325
-47.818
-48.249
-48.612
-48.9
-49.11
-49.235
-49.273
-49.218
-49.068
-48.821
-48.475
-48.027
-47.478
-46.825
-46.07
-45.212
-44.252
-43.194
-42.038
-40.789
-39.45
-38.026
-36.524
-34.949
-33.309
-31.609
-29.859
-28.068
-26.244
-24.398
-22.541
-20.684
-18.84
-17.024
-15.249
-13.53
-11.88
-10.313
-8.842
-7.481
-6.238
-5.126
-4.153
-3.33
-2.666
-2.173
-1.859
-1.734
-1.803
-2.074
-2.554
-3.244
-4.143
-5.249
-6.558
-8.072
-9.797
-11.734
-13.879
-16.224
-18.76
-21.472
-24.342
-27.339
-30.421
-33.549
-36.683
-39.792
-42.854
-45.839
-48.713
-51.437
-53.962
-56.261
-58.317
-60.11
-61.619
-62.845
-63.811
-64.57
-65.205
-65.779
-66.326
-66.885
-67.504
-68.248
-69.19
-70.406
-71.931
-73.799
-76.075
-78.751
-81.759
-84.927
-87.909
-90.349
-91.989
-92.539
-91.698
-89.433
-85.81
-81.099
-76.021
-71.112
-66.64
-63.025
-60.499
-58.761
-57.327
-55.233
-50.759
-42.577
-29.643
-10.708
15.059
47.947
87.85
133.733
182.793
231.604
277.193
316.86
350.643
380.448
405.569
423.214
427.659
410.362
367.76
302.313
219.797
132.354
52.293
-13.088
-57.497
-81.938
-94.12
-99.636
-104.269
-109.9
-112.703
-111.181
-105.515
-97.194
-89.32
-82.802
-77.202
-72.164
-67.238
-62.481
-57.868
-52.925
-47.815
-43.487
-40.706
-39.933
-41.075
-43.392
-46.463
-50.285
-54.485
-58.353
-61.364
-63.145
-63.786
-63.928
-63.928
-63.845
-63.803
-63.895
-64.194
-64.798
-65.585
-66.215
-66.493
-66.347
-65.757
-64.806
-63.545
-61.98
-60.17
-58.203
-56.146
-54.059
-51.979
-49.914
-47.879
-45.893
-43.97
-42.129
-40.375
-38.709
-37.119
-35.585
-34.092
-32.629
-31.183
-29.749
-28.314
-26.864
-25.387
-23.873
-22.314
-20.697
-19.009
-17.236
-15.363
-13.382
-11.284
-9.065
-6.717
-4.233
-1.606
1.169
4.097
7.18
10.423
13.827
17.393
21.118
24.997
29.025
33.194
37.495
41.918
46.45
51.08
55.791
60.568
65.396
70.255
75.127
79.991
84.828
89.615
94.332
98.955
103.463
107.832
112.039
116.064
119.885
123.481
126.833
129.921
132.729
135.241
137.44
139.315
140.854
142.045
142.882
143.357
143.467
143.208
142.582
141.589
140.232
138.519
136.455
134.051
131.317
128.265
124.91
121.267
117.353
113.187
108.787
104.174
99.37
94.397
89.277
84.035
78.691
73.271
67.796
62.29
56.775
51.271
45.801
40.385
35.042
29.791
24.65
19.636
14.763
10.045
5.495
1.123
-3.061
-7.048
-10.834
-14.412
-17.779
-20.932
-23.871
-26.596
-29.108
-31.41
-33.507
-35.403
-37.104
-38.618
-39.953
-41.117
-42.12
-42.97
-43.677
-44.252
-44.705
-45.045
-45.284
-45.431
-45.498
-45.494
-45.43
-45.315
-45.16
-44.972
-44.76
-44.532
-44.294
-44.054
-43.817
-43.587
-43.371
-43.171
-42.992
-42.837
-42.708
-42.606
-42.535
-42.493
-42.482
-42.5
-42.548
-42.624
-42.727
-42.855
-43.007
-43.182
-43.377
-43.589
-43.818
-44.059
-44.31
-44.568
-44.83
-45.093
-45.353
-45.607
-45.853
-46.088
-46.31
-46.516
-46.705
-46.875
-47.023
-47.148
-47.249
-47.322
-47.369
-47.386
-47.373
-47.33
-47.256
-47.152
-47.016
-46.849
-46.651
-46.423
-46.164
-45.876
-45.559
-45.214
-44.843
-44.446
-44.026
-43.586
-43.128
-42.654
-42.168
-41.673
-41.171
-40.665
-40.159
-39.655
-39.156
-38.664
-38.184
-37.718
-37.269
-36.84
-36.435
-36.056
-35.706
-35.386
-35.1
-34.848
-34.633
-34.455
-34.317
-34.219
-34.162
-34.146
-34.173
-34.241
-34.351
-34.5
-34.688
-34.913
-35.17
-35.458
-35.774
-36.114
-36.474
-36.85
-37.24
-37.638
-38.041
-38.445
-38.843
-39.232
-39.605
-39.959
-40.288
-40.587
-40.851
-41.076
-41.258
-41.393
-41.476
-41.504
-41.473
-41.38
-41.221
-40.993
-40.693
-40.319
-39.869
-39.34
-38.733
-38.046
-37.28
-36.434
-35.509
-34.506
-33.426
-32.27
-31.039
-29.736
-28.362
-26.922
-25.417
-23.853
-22.234
-20.564
-18.847
-17.088
-15.294
-13.469
-11.618
-9.748
-7.863
-5.972
-4.081
-2.196
-0.326
1.521
3.336
5.11
6.833
8.495
10.086
11.598
13.019
14.341
15.556
16.656
17.633
18.48
19.189
19.752
20.162
20.411
20.495
20.41
20.149
19.71
19.096
18.306
17.342
16.203
14.883
13.376
11.683
9.806
7.749
5.523
3.141
0.627
-1.986
-4.665
-7.376
-10.086
-12.774
-15.413
-17.974
-20.42
-22.708
-24.795
-26.656
-28.273
-29.623
-30.705
-31.541
-32.174
-32.683
-33.144
-33.606
-34.121
-34.751
-35.56
-36.632
-38.046
-39.852
-42.122
-44.951
-48.358
-52.292
-56.579
-60.868
-64.798
-68.074
-70.346
-71.228
-70.523
-68.224
-64.633
-60.498
-56.505
-53.075
-50.654
-49.647
-50.106
-51.637
-53.184
-52.916
-49.06
-40.047
-24.142
0.248
34.31
77.621
127.842
182.212
238.503
296.744
358.054
420.325
477.096
517.934
532.174
515.683
472.936
413.616
347.416
279.18
207.528
131.982
56.947
-10.037
-58.68
-85.442
-95.409
-94.669
-90.772
-86.894
-80.786
-72.57
-63.071
-53.545
-46.764
-43.473
-42.908
-44.503
-47.238
-49.848
-51.412
-51.331
-49.369
-45.842
-41.347
-36.342
-31.22
-26.452
-22.457
-19.498
-17.687
-16.946
-17.079
-17.917
-19.326
-21.16
-23.281
-25.558
-27.861
-30.074
-32.094
-33.841
-35.255
-36.298
-36.95
-37.2
-37.059
-36.553
-35.725
-34.616
-33.266
-31.706
-29.969
-28.094
-26.13
-24.127
-22.139
-20.201
-18.336
-16.559
-14.879
-13.296
-11.804
-10.389
-9.028
-7.705
-6.408
-5.126
-3.852
-2.575
-1.282
0.041
1.408
2.832
4.325
5.899
7.566
9.334
11.211
13.199
15.302
17.52
19.857
22.313
24.895
27.607
30.459
33.456
36.598
39.883
43.3
46.835
50.465
54.167
57.913
61.681
65.455
69.226
72.995
76.763
80.531
84.293
88.031
91.73
95.377
98.963
102.483
105.946
109.367
112.771
116.19
119.64
123.123
126.619
130.083
133.462
136.689
139.71
142.488
144.989
147.183
149.041
150.532
151.617
152.247
152.364
151.897
150.795
149.03
146.604
143.551
139.931
135.823
131.298
126.418
121.234
115.792
110.133
104.297
98.331
92.282
86.215
80.208
74.327
68.626
63.138
57.868
52.803
47.913
43.17
38.555
34.053
29.663
25.385
21.227
17.193
13.294
9.528
5.879
2.338
-1.108
-4.459
-7.71
-10.843
-13.838
-16.675
-19.336
-21.81
-24.093
-26.184
-28.088
-29.813
-31.373
-32.777
-34.032
-35.144
-36.116
-36.956
-37.672
-38.274
-38.773
-39.181
-39.511
-39.774
-39.98
-40.137
-40.252
-40.332
-40.379
-40.398
-40.392
-40.366
-40.325
-40.272
-40.213
-40.151
-40.089
-40.031
-39.979
-39.934
-39.898
-39.87
-39.851
-39.841
-39.84
-39.847
-39.862
-39.883
-39.911
-39.944
-39.981
-40.022
-40.065
-40.109
-40.153
-40.195
-40.235
-40.271
-40.301
-40.326
-40.343
-40.353
-40.354
-40.346
-40.327
-40.297
-40.256
-40.202
-40.136
-40.055
-39.961
-39.852
-39.729
-39.593
-39.443
-39.279
-39.103
-38.914
-38.713
-38.5
-38.277
-38.044
-37.801
-37.551
-37.294
-37.032
-36.767
-36.501
-36.235
-35.972
-35.714
-35.462
-35.22
-34.99
-34.774
-34.574
-34.394
-34.234
-34.099
-33.989
-33.908
-33.856
-33.836
-33.848
-33.894
-33.974
-34.09
-34.24
-34.426
-34.648
-34.904
-35.194
-35.518
-35.872
-36.256
-36.666
-37.099
-37.551
-38.018
-38.495
-38.978
-39.46
-39.938
-40.404
-40.852
-41.276
-41.67
-42.025
-42.337
-42.596
-42.795
-42.929
-42.991
-42.974
-42.873
-42.683
-42.398
-42.016
-41.531
-40.941
-40.243
-39.434
-38.512
-37.477
-36.33
-35.07
-33.7
-32.224
-30.644
-28.966
-27.196
-25.341
-23.408
-21.406
-19.342
-17.228
-15.073
-12.889
-10.688
-8.484
-6.291
-4.126
-2.003
0.061
2.051
3.951
5.747
7.423
8.969
10.372
11.622
12.708
13.619
14.342
14.868
15.19
15.3
15.192
14.863
14.309
13.536
12.547
11.346
9.935
8.307
6.461
4.4
2.129
-0.342
-2.999
-5.824
-8.792
-11.864
-15.001
-18.164
-21.319
-24.439
-27.499
-30.463
-33.288
-35.925
-38.329
-40.473
-42.333
-43.888
-45.138
-46.096
-46.802
-47.322
-47.715
-48.035
-48.344
-48.708
-49.199
-49.902
-50.888
-52.251
-54.115
-56.523
-59.43
-62.695
-66.024
-69.118
-71.734
-73.559
-74.198
-73.436
-71.322
-68.215
-64.855
-61.928
-59.814
-58.86
-59.493
-61.867
-65.568
-69.501
-71.816
-70.635
-64.577
-52.128
-31.683
-2.089
37.286
85.004
138.443
196.02
255.284
314.985
373.659
424.704
462.731
482.303
478.05
453.381
412.975
361.197
303.831
239.542
165.889
85.17
2.728
-69.661
-119.881
-143.691
-144.2
-131.211
-115.289
-102.027
-92.601
-84.896
-77.302
-70.165
-64.589
-62.056
-62.772
-65.732
-69.714
-73.334
-75.544
-75.998
-74.736
-72.033
-68.397
-64.304
-60.152
-56.362
-53.302
-51.142
-49.895
-49.475
-49.697
-50.396
-51.458
-52.752
-54.164
-55.601
-56.963
-58.163
-59.135
-59.826
-60.201
-60.245
-59.95
-59.318
-58.376
-57.156
-55.707
-54.073
-52.286
-50.38
-48.382
-46.329
-44.262
-42.222
-40.249
-38.37
-36.601
-34.951
-33.426
-32.022
-30.729
-29.529
-28.398
-27.318
-26.272
-25.245
-24.223
-23.187
-22.12
-21.004
-19.821
-18.555
-17.193
-15.718
-14.119
-12.384
-10.504
-8.472
-6.283
-3.93
-1.409
1.286
4.157
7.207
10.437
13.846
17.431
21.187
25.11
29.189
33.415
37.776
42.257
46.844
51.521
56.268
61.066
65.897
70.738
75.567
80.362
85.101
89.761
94.317
98.747
103.029
107.138
111.054
114.754
118.22
121.431
124.368
127.016
129.359
131.382
133.073
134.421
135.416
136.052
136.323
136.226
135.759
134.924
133.724
132.164
130.251
127.994
125.404
122.493
119.274
115.764
111.977
107.933
103.649
99.146
94.443
89.563
84.527
79.356
74.074
68.702
63.263
57.778
52.27
46.761
41.27
35.819
30.428
25.115
19.899
14.797
9.824
4.996
0.325
-4.177
-8.498
-12.631
-16.567
-20.3
-23.826
-27.14
-30.241
-33.126
-35.797
-38.254
-40.499
-42.537
-44.37
-46.006
-47.45
-48.708
-49.788
-50.699
-51.447
-52.043
-52.496
-52.816
-53.012
-53.096
-53.077
-52.967
-52.776
-52.515
-52.193
-51.822
-51.409
-50.965
-50.497
-50.014
-49.523
-49.03
-48.543
-48.067
-47.607
-47.168
-46.755
-46.371
-46.018
-45.699
-45.415
-45.168
-44.958
-44.786
-44.652
-44.556
-44.496
-44.473
-44.483
-44.525
-44.596
-44.694
-44.814
-44.954
-45.11
-45.277
-45.452
-45.632
-45.812
-45.99
-46.161
-46.322
-46.47
-46.602
-46.714
-46.805
-46.872
-46.913
-46.926
-46.91
-46.865
-46.789
-46.682
-46.545
-46.378
-46.18
-45.953
-45.697
-45.414
-45.104
-44.77
-44.414
-44.039
-43.647
-43.242
-42.827
-42.405
-41.982
-41.559
-41.141
-40.731
-40.331
-39.948
-39.586
-39.249
-38.943
-38.673
-38.436
-38.237
-38.082
-37.963
-37.873
-37.813
-37.773
-37.753
-37.773
-37.835
-37.935
-38.117
-38.403
-38.784
-39.286
-39.904
-40.572
-41.259
-41.969
-42.531
-42.79
-42.897
-42.854
-42.557
-42.393
-41.766
-39.897
-37.88
-36.097
-36.412
-41.942
-51.411
-62.507
-70.962
-70.428
-59.818
-42.493
-24.947
-15.023
-16.797
-28.046
-42.196
-53.134
-56.609
-53.011
-46.663
-40.429
-36.167
-34.162
-32.707
-31.128
-29.441
-27.589
-25.874
-24.36
-22.797
-21.121
-19.362
-17.501
-15.547
-13.534
-11.482
-9.429
-7.43
-5.509
-3.663
-1.903
-0.239
1.317
2.754
4.062
5.236
6.266
7.142
7.854
8.394
8.753
8.923
8.899
8.678
8.261
7.646
6.83
5.804
4.567
3.121
1.473
-0.37
-2.397
-4.595
-6.941
-9.395
-11.912
-14.448
-16.965
-19.435
-21.828
-24.109
-26.238
-28.172
-29.878
-31.344
-32.565
-33.528
-34.23
-34.683
-34.929
-35.062
-35.19
-35.405
-35.79
-36.402
-37.284
-38.501
-40.112
-42.159
-44.67
-47.63
-51.01
-54.818
-59.075
-63.698
-68.5
-73.174
-77.284
-80.392
-82.116
-82.125
-80.106
-75.999
-69.932
-62.088
-53.093
-43.942
-35.533
-28.485
-22.369
-15.405
-6.005
6.263
19.495
30.664
38.808
46.388
61.46
93.568
148.782
227.018
317.908
405.705
473.927
510.433
513.924
490.919
451.962
406.114
354.08
289.717
208.205
110.801
8.876
-77.603
-134.402
-157.386
-152.903
-136.146
-117.754
-101.977
-88.444
-72.947
-55.088
-37.229
-22.08
-13.279
-11.953
-16.892
-26.617
-38.686
-50.5
-60.77
-68.617
-73.218
-74.495
-72.722
-68.323
-62.362
-56.146
-50.4
-45.578
-42.064
-39.868
-38.947
-39.238
-40.372
-41.903
-43.574
-45.199
-46.645
-47.882
-48.851
-49.491
-49.824
-49.885
-49.687
-49.244
-48.554
-47.609
-46.427
-45.033
-43.453
-41.714
-39.847
-37.887
-35.873
-33.85
-31.848
-29.888
-27.986
-26.15
-24.386
-22.691
-21.058
-19.472
-17.918
-16.383
-14.855
-13.319
-11.76
-10.162
-8.51
-6.79
-4.988
-3.092
-1.092
1.023
3.261
5.627
8.126
10.762
13.536
16.452
19.509
22.71
26.054
29.539
33.162
36.921
40.81
44.822
48.949
53.181
57.507
61.913
66.387
70.913
75.476
80.057
84.64
89.206
93.736
98.21
102.609
106.911
111.098
115.149
119.044
122.763
126.287
129.599
132.679
135.511
138.081
140.372
142.373
144.07
145.455
146.517
147.249
147.645
147.702
147.416
146.787
145.816
144.507
142.864
140.893
138.603
136.004
133.108
129.926
126.473
122.764
118.815
114.644
110.27
105.71
100.986
96.118
91.127
86.034
80.862
75.631
70.364
65.081
59.803
54.551
49.343
44.198
39.136
34.172
29.323
24.605
20.03
15.612
11.362
7.289
3.402
-0.292
-3.787
-7.078
-10.164
-13.042
-15.711
-18.171
-20.426
-22.477
-24.328
-25.985
-27.454
-28.742
-29.858
-30.808
-31.604
-32.254
-32.768
-33.156
-33.43
-33.599
-33.674
-33.665
-33.584
-33.439
-33.242
-33.001
-32.726
-32.425
-32.106
-31.776
-31.442
-31.11
-30.785
-30.471
-30.174
-29.896
-29.641
-29.411
-29.207
-29.031
-28.882
-28.762
-28.668
-28.6
-28.556
-28.533
-28.53
-28.544
-28.572
-28.612
-28.66
-28.714
-28.77
-28.825
-28.877
-28.921
-28.956
-28.978
-28.985
-28.975
-28.947
-28.897
-28.826
-28.733
-28.615
-28.474
-28.309
-28.12
-27.907
-27.67
-27.412
-27.133
-26.835
-26.521
-26.193
-25.853
-25.505
-25.151
-24.795
-24.439
-24.088
-23.743
-23.407
-23.085
-22.779
-22.492
-22.226
-21.986
-21.773
-21.591
-21.441
-21.326
-21.247
-21.207
-21.206
-21.246
-21.329
-21.454
-21.623
-21.836
-22.094
-22.395
-22.74
-23.127
-23.554
-24.019
-24.519
-25.052
-25.614
-26.202
-26.811
-27.439
-28.08
-28.731
-29.387
-30.044
-30.695
-31.337
-31.964
-32.57
-33.151
-33.7
-34.213
-34.683
-35.107
-35.48
-35.796
-36.05
-36.238
-36.355
-36.398
-36.362
-36.243
-36.038
-35.745
-35.361
-34.886
-34.318
-33.659
-32.907
-32.065
-31.135
-30.118
-29.018
-27.839
-26.583
-25.258
-23.868
-22.421
-20.923
-19.382
-17.807
-16.209
-14.597
-12.983
-11.376
-9.788
-8.229
-6.712
-5.247
-3.843
-2.509
-1.255
-0.091
0.974
1.928
2.763
3.471
4.042
4.468
4.741
4.857
4.817
4.619
4.262
3.743
3.053
2.188
1.152
-0.053
-1.421
-2.941
-4.602
-6.374
-8.221
-10.107
-12
-13.878
-15.728
-17.529
-19.256
-20.88
-22.366
-23.694
-24.857
-25.84
-26.63
-27.236
-27.677
-28.019
-28.355
-28.757
-29.28
-29.954
-30.802
-31.874
-33.223
-34.902
-36.967
-39.424
-42.289
-45.622
-49.388
-53.462
-57.624
-61.456
-64.558
-66.647
-67.384
-66.509
-64.042
-60.125
-55.163
-49.887
-44.85
-40.514
-37.47
-35.91
-35.469
-35.471
-34.769
-31.862
-25.426
-14.075
3.802
29.206
62.158
101.928
147.094
195.559
244.708
291.46
332.18
363.162
381.566
385.502
373.367
345.523
304.794
253.022
192.269
124.072
47.315
-33.279
-108.037
-167.937
-203.143
-212.697
-204.349
-185.087
-163.013
-141.858
-120.138
-98.566
-77.665
-58.429
-43.961
-35.72
-33.526
-36.609
-42.782
-49.593
-55.813
-60.815
-64.037
-65.083
-63.821
-60.402
-55.61
-50.704
-46.405
-42.966
-40.55
-39.191
-38.899
-39.657
-41.18
-42.932
-44.538
-45.827
-46.726
-47.27
-47.468
-47.274
-46.698
-45.807
-44.674
-43.35
-41.864
-40.205
-38.378
-36.421
-34.378
-32.305
-30.257
-28.262
-26.334
-24.484
-22.715
-21.032
-19.435
-17.918
-16.463
-15.057
-13.69
-12.358
-11.054
-9.768
-8.482
-7.176
-5.832
-4.437
-2.98
-1.451
0.16
1.863
3.666
5.573
7.588
9.717
11.966
14.344
16.854
19.502
22.29
25.22
28.292
31.504
34.855
38.338
41.948
45.677
49.516
53.456
57.486
61.594
65.766
69.988
74.246
78.522
82.801
87.063
91.291
95.465
99.568
103.579
107.478
111.247
114.865
118.314
121.574
124.628
127.456
130.043
132.371
134.426
136.195
137.664
138.823
139.663
140.177
140.359
140.207
139.718
138.893
137.732
136.239
134.419
132.279
129.827
127.072
124.026
120.7
117.11
113.269
109.195
104.905
100.415
95.746
90.918
85.949
80.861
75.676
70.414
65.096
59.745
54.382
49.026
43.699
38.418
33.204
28.073
23.042
18.126
13.339
8.693
4.202
-0.125
-4.279
-8.25
-12.034
-15.623
-19.014
-22.204
-25.191
-27.975
-30.556
-32.935
-35.117
-37.103
-38.9
-40.511
-41.945
-43.208
-44.307
-45.251
-46.05
-46.713
-47.248
-47.666
-47.977
-48.19
-48.314
-48.358
-48.33
-48.24
-48.094
-47.901
-47.667
-47.398
-47.102
-46.782
-46.444
-46.094
-45.733
-45.367
-44.997
-44.626
-44.256
-43.888
-43.523
-43.163
-42.806
-42.453
-42.103
-41.755
-41.408
-41.06
-40.709
-40.354
-39.993
-39.623
-39.244
-38.853
-38.45
-38.033
-37.602
-37.157
-36.697
-36.223
-35.736
-35.236
-34.725
-34.203
-33.673
-33.137
-32.596
-32.054
-31.513
-30.975
-30.444
-29.922
-29.413
-28.919
-28.444
-27.991
-27.563
-27.164
-26.797
-26.465
-26.171
-25.919
-25.712
-25.551
-25.44
-25.379
-25.371
-25.416
-25.514
-25.666
-25.871
-26.129
-26.438
-26.796
-27.202
-27.653
-28.146
-28.678
-29.246
-29.846
-30.473
-31.125
-31.797
-32.484
-33.182
-33.887
-34.594
-35.298
-35.995
-36.68
-37.347
-37.991
-38.609
-39.194
-39.741
-40.248
-40.708
-41.117
-41.471
-41.768
-42.003
-42.174
-42.279
-42.314
-42.279
-42.173
-41.995
-41.744
-41.42
-41.024
-40.556
-40.017
-39.41
-38.735
-37.994
-37.189
-36.323
-35.4
-34.423
-33.396
-32.323
-31.207
-30.055
-28.872
-27.664
-26.438
-25.198
-23.953
-22.711
-21.482
-20.273
-19.094
-17.953
-16.859
-15.823
-14.851
-13.949
-13.123
-12.378
-11.721
-11.157
-10.691
-10.33
-10.079
-9.946
-9.934
-10.047
-10.287
-10.649
-11.132
-11.736
-12.459
-13.306
-14.277
-15.37
-16.587
-17.926
-19.383
-20.942
-22.582
-24.272
-25.987
-27.706
-29.411
-31.088
-32.715
-34.27
-35.736
-37.1
-38.346
-39.455
-40.409
-41.189
-41.806
-42.297
-42.699
-43.066
-43.44
-43.824
-44.234
-44.686
-45.196
-45.818
-46.606
-47.564
-48.721
-50.167
-51.966
-54.15
-56.582
-58.864
-60.564
-61.336
-60.918
-59.101
-55.662
-50.602
-44.549
-38.625
-34.133
-31.403
-29.364
-27.258
-25.547
-27.47
-37.471
-56.115
-77.981
-90.997
-82.531
-47.111
10.887
77.745
140.469
192.887
235.833
276.132
315.397
347.758
364.071
353.735
314.274
252.856
180.831
110.286
49.416
0.289
-39.394
-71.199
-96.372
-115.397
-125.488
-125.901
-117.753
-102.229
-83.503
-65.547
-50.027
-38.255
-30.681
-27.198
-28.058
-32.921
-40.202
-47.936
-54.871
-60.341
-64.124
-66.163
-66.12
-63.901
-60.125
-55.812
-51.696
-48.137
-45.208
-42.861
-41.247
-40.501
-40.49
-40.877
-41.364
-41.772
-42.036
-42.181
-42.171
-41.94
-41.477
-40.806
-39.969
-38.999
-37.915
-36.707
-35.379
-33.945
-32.419
-30.831
-29.209
-27.581
-25.982
-24.436
-22.958
-21.56
-20.252
-19.037
-17.916
-16.883
-15.923
-15.023
-14.174
-13.367
-12.592
-11.834
-11.076
-10.3
-9.49
-8.634
-7.718
-6.729
-5.656
-4.485
-3.207
-1.813
-0.296
1.349
3.129
5.051
7.118
9.335
11.703
14.221
16.888
19.703
22.666
25.773
29.022
32.401
35.895
39.496
43.189
46.96
50.795
54.673
58.57
62.477
66.378
70.262
74.12
77.927
81.659
85.296
88.811
92.198
95.45
98.545
101.464
104.199
106.733
109.072
111.225
113.164
114.862
116.302
117.459
118.337
118.941
119.258
119.279
118.989
118.367
117.424
116.172
114.6
112.709
110.48
107.884
104.958
101.736
98.232
94.476
90.468
86.204
81.73
77.092
72.322
67.464
62.531
57.532
52.51
47.499
42.544
37.698
32.96
28.327
23.829
19.482
15.318
11.379
7.645
4.093
0.726
-2.464
-5.465
-8.262
-10.87
-13.302
-15.565
-17.673
-19.616
-21.381
-22.988
-24.448
-25.781
-27.014
-28.13
-29.114
-29.972
-30.705
-31.323
-31.841
-32.255
-32.563
-32.779
-32.911
-32.975
-32.987
-32.947
-32.856
-32.716
-32.526
-32.302
-32.059
-31.803
-31.54
-31.278
-31.019
-30.772
-30.548
-30.343
-30.156
-29.986
-29.831
-29.693
-29.574
-29.473
-29.389
-29.318
-29.256
-29.202
-29.151
-29.098
-29.039
-28.968
-28.879
-28.77
-28.637
-28.478
-28.29
-28.07
-27.816
-27.526
-27.201
-26.839
-26.439
-26.001
-25.527
-25.016
-24.472
-23.896
-23.29
-22.657
-22.001
-21.325
-20.632
-19.927
-19.212
-18.493
-17.773
-17.056
-16.348
-15.653
-14.976
-14.322
-13.696
-13.103
-12.547
-12.033
-11.565
-11.146
-10.78
-10.469
-10.215
-10.021
-9.887
-9.813
-9.799
-9.845
-9.95
-10.111
-10.327
-10.594
-10.908
-11.267
-11.666
-12.1
-12.565
-13.055
-13.566
-14.092
-14.628
-15.168
-15.706
-16.237
-16.756
-17.255
-17.729
-18.172
-18.578
-18.94
-19.253
-19.513
-19.712
-19.848
-19.915
-19.909
-19.828
-19.668
-19.427
-19.103
-18.695
-18.202
-17.624
-16.963
-16.22
-15.397
-14.496
-13.521
-12.476
-11.365
-10.193
-8.966
-7.687
-6.363
-5.001
-3.607
-2.188
-0.751
0.696
2.144
3.582
5.002
6.392
7.742
9.043
10.283
11.454
12.545
13.551
14.463
15.275
15.979
16.568
17.035
17.372
17.574
17.635
17.551
17.32
16.942
16.42
15.754
14.944
13.988
12.883
11.626
10.219
8.662
6.963
5.132
3.19
1.165
-0.908
-3.003
-5.093
-7.157
-9.172
-11.108
-12.936
-14.631
-16.168
-17.526
-18.681
-19.615
-20.322
-20.824
-21.17
-21.42
-21.639
-21.879
-22.169
-22.552
-23.092
-23.859
-24.924
-26.338
-28.087
-30.184
-32.689
-35.576
-38.751
-41.999
-44.914
-47.139
-48.522
-48.923
-48.236
-46.543
-43.869
-40.454
-36.984
-34.024
-31.842
-30.531
-29.746
-28.8
-27.245
-24.275
-18.553
-8.981
5.705
26.549
53.352
85.547
121.706
158.605
194.319
227.681
258.023
287.07
312.169
326.935
325.325
300.403
253.439
193.338
128.823
69.607
19.907
-21.836
-55.605
-81.851
-100.419
-109.461
-109.591
-102.969
-91.697
-78.715
-66.58
-56.564
-49.481
-45.681
-44.796
-46.204
-49.214
-52.76
-55.751
-57.633
-58.196
-57.52
-55.925
-53.705
-51.107
-48.49
-46.243
-44.554
-43.445
-42.798
-42.395
-42.079
-41.757
-41.345
-40.749
-39.908
-38.769
-37.302
-35.549
-33.557
-31.354
-28.972
-26.438
-23.796
-21.143
-18.61
-16.31
-14.323
-12.697
-11.452
-10.612
-10.192
-10.184
-10.549
-11.208
-12.09
-13.143
-14.333
-15.622
-16.96
-18.263
-19.431
-20.389
-21.083
-21.477
-21.544
-21.255
-20.594
-19.576
-18.244
-16.661
-14.875
-12.91
-10.781
-8.497
-6.078
-3.552
-0.949
1.721
4.451
7.232
10.056
12.911
15.795
18.719
21.708
24.791
27.984
31.293
34.717
38.252
41.896
45.64
49.474
53.377
57.332
61.322
65.335
69.359
73.375
77.366
81.307
85.176
88.954
92.622
96.162
99.556
102.79
105.848
108.72
111.395
113.863
116.113
118.133
119.912
121.441
122.711
123.714
124.441
124.889
125.052
124.929
124.519
123.823
122.844
121.584
120.048
118.244
116.178
113.859
111.297
108.502
105.487
102.265
98.848
95.252
91.491
87.58
83.535
79.371
75.106
70.755
66.335
61.862
57.354
52.827
48.299
43.785
39.302
34.867
30.494
26.199
21.995
17.896
13.914
10.059
6.342
2.771
-0.645
-3.901
-6.99
-9.91
-12.656
-15.226
-17.621
-19.841
-21.886
-23.759
-25.463
-27.002
-28.381
-29.606
-30.682
-31.617
-32.417
-33.09
-33.645
-34.09
-34.434
-34.686
-34.856
-34.952
-34.986
-34.965
-34.899
-34.798
-34.669
-34.521
-34.362
-34.198
-34.036
-33.881
-33.74
-33.617
-33.515
-33.438
-33.389
-33.368
-33.377
-33.416
-33.486
-33.585
-33.713
-33.867
-34.046
-34.249
-34.471
-34.711
-34.966
-35.232
-35.507
-35.786
-36.065
-36.342
-36.612
-36.872
-37.117
-37.345
-37.553
-37.736
-37.894
-38.022
-38.119
-38.184
-38.214
-38.208
-38.166
-38.089
-37.975
-37.826
-37.643
-37.427
-37.18
-36.905
-36.603
-36.277
-35.929
-35.561
-35.177
-34.778
-34.367
-33.947
-33.521
-33.092
-32.662
-32.235
-31.813
-31.4
-30.997
-30.607
-30.234
-29.879
-29.545
-29.235
-28.949
-28.691
-28.461
-28.261
-28.091
-27.954
-27.848
-27.774
-27.733
-27.723
-27.745
-27.798
-27.881
-27.995
-28.139
-28.312
-28.513
-28.743
-28.999
-29.281
-29.588
-29.918
-30.271
-30.644
-31.036
-31.444
-31.866
-32.3
-32.742
-33.19
-33.64
-34.089
-34.534
-34.971
-35.397
-35.808
-36.202
-36.576
-36.926
-37.25
-37.544
-37.805
-38.029
-38.214
-38.355
-38.448
-38.49
-38.478
-38.407
-38.275
-38.078
-37.814
-37.479
-37.072
-36.59
-36.033
-35.4
-34.691
-33.907
-33.049
-32.119
-31.122
-30.061
-28.94
-27.763
-26.537
-25.266
-23.955
-22.611
-21.24
-19.848
-18.442
-17.028
-15.618
-14.219
-12.843
-11.499
-10.198
-8.952
-7.77
-6.664
-5.641
-4.709
-3.875
-3.147
-2.53
-2.033
-1.662
-1.423
-1.321
-1.361
-1.543
-1.868
-2.337
-2.945
-3.688
-4.563
-5.569
-6.708
-7.985
-9.399
-10.946
-12.618
-14.397
-16.265
-18.195
-20.153
-22.105
-24.015
-25.843
-27.558
-29.13
-30.533
-31.745
-32.732
-33.458
-33.901
-34.054
-33.928
-33.562
-32.993
-32.265
-31.45
-30.608
-29.817
-29.179
-28.783
-28.709
-29.025
-29.743
-30.902
-32.59
-34.795
-37.413
-40.247
-42.912
-45.073
-46.601
-47.329
-47.064
-45.791
-43.525
-40.505
-37.458
-35.043
-33.458
-32.689
-32.409
-31.991
-30.88
-28.135
-22.082
-11.014
6.297
30.388
60.927
97.064
137.706
180.855
223.629
262.773
294.709
316.521
326.408
322.779
305.62
277.4
239.809
194.47
143.109
84.832
23.156
-33.71
-78.761
-104.361
-109.552
-101.56
-87.288
-73.846
-64.66
-57.936
-52.656
-47.989
-43.936
-42.145
-42.812
-45.273
-48.634
-51.319
-52.543
-52.236
-50.392
-47.361
-43.566
-39.311
-35.035
-31.215
-28.083
-25.733
-24.165
-23.244
-22.862
-22.93
-23.324
-23.936
-24.679
-25.479
-26.27
-26.982
-27.551
-27.933
-28.096
-28.027
-27.718
-27.168
-26.391
-25.42
-24.284
-23.017
-21.646
-20.183
-18.655
-17.092
-15.526
-13.997
-12.531
-11.142
-9.842
-8.635
-7.524
-6.506
-5.569
-4.693
-3.861
-3.061
-2.28
-1.509
-0.736
0.054
0.877
1.745
2.67
3.664
4.737
5.9
7.163
8.532
10.015
11.613
13.334
15.182
17.163
19.279
21.535
23.931
26.468
29.147
31.965
34.919
38.005
41.214
44.539
47.972
51.502
55.117
58.805
62.551
66.342
70.161
73.995
77.825
81.635
85.409
89.128
92.776
96.335
99.786
103.113
106.297
109.32
112.167
114.82
117.263
119.482
121.462
123.191
124.657
125.849
126.758
127.376
127.696
127.715
127.429
126.837
125.94
124.74
123.241
121.449
119.372
117.017
114.395
111.517
108.394
105.04
101.469
97.697
93.74
89.614
85.339
80.931
76.412
71.799
67.113
62.374
57.601
52.815
48.035
43.28
38.569
33.92
29.35
24.876
20.514
16.278
12.182
8.237
4.455
0.844
-2.587
-5.831
-8.885
-11.742
-14.401
-16.86
-19.118
-21.176
-23.035
-24.699
-26.171
-27.457
-28.563
-29.497
-30.265
-30.877
-31.342
-31.67
-31.871
-31.956
-31.934
-31.819
-31.619
-31.348
-31.016
-30.633
-30.212
-29.761
-29.291
-28.81
-28.328
-27.852
-27.389
-26.946
-26.53
-26.145
-25.796
-25.488
-25.225
-25.009
-24.843
-24.728
-24.666
-24.656
-24.698
-24.791
-24.934
-25.124
-25.361
-25.641
-25.961
-26.319
-26.71
-27.131
-27.578
-28.047
-28.534
-29.035
-29.546
-30.062
-30.581
-31.099
-31.612
-32.117
-32.612
-33.093
-33.558
-34.004
-34.429
-34.831
-35.207
-35.557
-35.879
-36.171
-36.433
-36.664
-36.865
-37.035
-37.174
-37.283
-37.361
-37.411
-37.431
-37.424
-37.391
-37.333
-37.253
-37.151
-37.029
-36.89
-36.736
-36.568
-36.388
-36.198
-35.999
-35.794
-35.584
-35.372
-35.158
-34.946
-34.736
-34.531
-34.332
-34.141
-33.958
-33.786
-33.626
-33.478
-33.343
-33.222
-33.116
-33.026
-32.951
-32.893
-32.851
-32.825
-32.815
-32.821
-32.841
-32.876
-32.923
-32.983
-33.053
-33.134
-33.223
-33.32
-33.425
-33.534
-33.649
-33.766
-33.886
-34.008
-34.13
-34.251
-34.372
-34.492
-34.609
-34.725
-34.84
-34.952
-35.063
-35.172
-35.28
-35.386
-35.493
-35.599
-35.706
-35.813
-35.923
-36.034
-36.149
-36.268
-36.392
-36.521
-36.656
-36.798
-36.946
-37.102
-37.265
-37.434
-37.61
-37.791
-37.976
-38.163
-38.351
-38.538
-38.721
-38.897
-39.064
-39.216
-39.352
-39.466
-39.556
-39.615
-39.641
-39.628
-39.571
-39.468
-39.313
-39.103
-38.834
-38.502
-38.104
-37.638
-37.1
-36.489
-35.802
-35.038
-34.195
-33.273
-32.273
-31.195
-30.041
-28.814
-27.516
-26.151
-24.725
-23.243
-21.71
-20.133
-18.519
-16.878
-15.218
-13.549
-11.881
-10.226
-8.594
-7
-5.454
-3.968
-2.554
-1.224
0.011
1.142
2.161
3.06
3.831
4.466
4.958
5.3
5.488
5.516
5.378
5.068
4.585
3.928
3.102
2.112
0.96
-0.354
-1.831
-3.464
-5.246
-7.167
-9.219
-11.39
-13.66
-16
-18.365
-20.717
-23.023
-25.255
-27.393
-29.408
-31.267
-32.941
-34.405
-35.645
-36.655
-37.421
-37.927
-38.178
-38.198
-38.041
-37.793
-37.524
-37.29
-37.145
-37.117
-37.25
-37.613
-38.257
-39.222
-40.53
-42.145
-44.064
-46.334
-48.893
-51.584
-54.144
-56.11
-57.085
-56.921
-55.469
-52.58
-48.297
-42.715
-36.179
-29.578
-23.745
-18.983
-15.321
-12.469
-9.829
-6.845
-2.545
4.87
17.266
35.883
61.164
92.676
129.445
170.25
213.042
254.68
291.47
319.889
337.337
342.147
333.132
309.816
272.977
224.738
168.413
107.85
46.603
-11.823
-63.729
-105.959
-136.425
-154.348
-160.222
-155.168
-140.678
-119.073
-93.501
-67.268
-43.235
-23.218
-8.215
0.958
3.98
1.401
-5.442
-14.592
-24.095
-32.796
-39.99
-44.913
-47.148
-46.708
-43.974
-39.921
-35.666
-31.785
-28.575
-26.318
-25.083
-24.866
-25.607
-26.928
-28.332
-29.566
-30.501
-31.088
-31.39
-31.413
-31.129
-30.592
-29.884
-29.058
-28.153
-27.17
-26.081
-24.893
-23.631
-22.328
-21.032
-19.767
-18.54
-17.356
-16.216
-15.12
-14.069
-13.059
-12.073
-11.102
-10.137
-9.173
-8.209
-7.235
-6.24
-5.206
-4.116
-2.957
-1.718
-0.39
1.036
2.568
4.214
5.978
7.862
9.871
12.009
14.28
16.687
19.232
21.915
24.734
27.689
30.776
33.991
37.327
40.778
44.336
47.992
51.736
55.558
59.445
63.385
67.364
71.368
75.383
79.392
83.38
87.329
91.222
95.043
98.774
102.398
105.896
109.252
112.45
115.473
118.306
120.934
123.344
125.523
127.459
129.142
130.563
131.712
132.583
133.171
133.471
133.482
133.202
132.631
131.771
130.625
129.197
127.494
125.521
123.288
120.804
118.079
115.125
111.954
108.58
105.017
101.281
97.387
93.352
89.192
84.924
80.564
76.132
71.642
67.113
62.56
58.001
53.451
48.925
44.439
40.005
35.638
31.35
27.154
23.059
19.076
15.214
11.482
7.887
4.434
1.131
-2.02
-5.015
-7.851
-10.526
-13.04
-15.393
-17.586
-19.62
-21.498
-23.223
-24.799
-26.23
-27.521
-28.677
-29.704
-30.607
-31.394
-32.071
-32.643
-33.117
-33.501
-33.8
-34.021
-34.171
-34.256
-34.282
-34.256
-34.185
-34.074
-33.929
-33.755
-33.558
-33.343
-33.115
-32.878
-32.635
-32.393
-32.153
-31.919
-31.695
-31.483
-31.286
-31.106
-30.944
-30.802
-30.681
-30.582
-30.506
-30.453
-30.422
-30.416
-30.433
-30.473
-30.537
-30.623
-30.731
-30.859
-31.007
-31.172
-31.354
-31.55
-31.758
-31.977
-32.204
-32.436
-32.673
-32.91
-33.146
-33.378
-33.603
-33.819
-34.023
-34.212
-34.385
-34.538
-34.671
-34.781
-34.867
-34.928
-34.962
-34.969
-34.947
-34.896
-34.814
-34.702
-34.559
-34.385
-34.18
-33.946
-33.683
-33.392
-33.075
-32.734
-32.37
-31.986
-31.584
-31.165
-30.733
-30.29
-29.84
-29.385
-28.929
-28.474
-28.024
-27.582
-27.151
-26.733
-26.33
-25.946
-25.581
-25.239
-24.919
-24.624
-24.355
-24.114
-23.901
-23.718
-23.565
-23.442
-23.349
-23.287
-23.254
-23.251
-23.277
-23.33
-23.41
-23.515
-23.645
-23.798
-23.972
-24.167
-24.38
-24.609
-24.853
-25.11
-25.379
-25.656
-25.942
-26.235
-26.533
-26.836
-27.144
-27.455
-27.77
-28.086
-28.405
-28.726
-29.047
-29.369
-29.691
-30.013
-30.334
-30.654
-30.973
-31.288
-31.601
-31.908
-32.211
-32.506
-32.792
-33.069
-33.333
-33.583
-33.816
-34.031
-34.225
-34.395
-34.538
-34.651
-34.731
-34.774
-34.777
-34.735
-34.645
-34.504
-34.307
-34.052
-33.735
-33.352
-32.901
-32.38
-31.786
-31.118
-30.374
-29.554
-28.658
-27.687
-26.643
-25.528
-24.346
-23.098
-21.791
-20.43
-19.021
-17.57
-16.085
-14.573
-13.044
-11.51
-9.982
-8.471
-6.99
-5.55
-4.166
-2.851
-1.616
-0.47
0.576
1.512
2.327
3.012
3.554
3.945
4.176
4.24
4.129
3.839
3.368
2.718
1.894
0.895
-0.279
-1.631
-3.162
-4.868
-6.745
-8.784
-10.971
-13.286
-15.704
-18.189
-20.711
-23.241
-25.753
-28.223
-30.626
-32.931
-35.111
-37.135
-38.972
-40.594
-41.98
-43.115
-44.017
-44.71
-45.226
-45.608
-45.879
-46.066
-46.225
-46.398
-46.638
-47.004
-47.513
-48.206
-49.189
-50.473
-51.983
-53.551
-54.808
-55.41
-55.166
-53.798
-51.009
-46.81
-41.353
-35.082
-28.958
-23.767
-19.991
-18.225
-18.789
-21.301
-25.072
-28.881
-30.642
-28.468
-20.726
-5.59
18.15
50.522
90.897
137.853
188.72
240.467
289.732
332.557
365.38
385.578
391.306
381.492
356.115
317.336
268.363
211.877
151.818
89.886
27.226
-29.74
-76.383
-108.389
-121.641
-120.645
-110.267
-94.531
-79.01
-64.255
-50.58
-39.25
-29.795
-23.143
-19.862
-19.215
-20.654
-22.983
-24.839
-25.708
-25.463
-24.197
-22.276
-20.006
-17.635
-15.555
-14.162
-13.64
-14.001
-15.128
-16.81
-18.873
-21.181
-23.587
-25.939
-28.105
-29.986
-31.539
-32.757
-33.64
-34.188
-34.393
-34.257
-33.804
-33.071
-32.097
-30.922
-29.578
-28.102
-26.532
-24.912
-23.289
-21.694
-20.149
-18.664
-17.247
-15.9
-14.625
-13.419
-12.269
-11.163
-10.09
-9.039
-8.007
-6.984
-5.96
-4.925
-3.867
-2.778
-1.651
-0.477
0.752
2.045
3.409
4.852
6.377
7.994
9.709
11.528
13.455
15.497
17.661
19.957
22.394
24.972
27.689
30.537
33.507
36.586
39.756
42.987
46.253
49.525
52.783
56.018
59.225
62.395
65.519
68.586
71.592
74.552
77.486
80.407
83.333
86.283
89.284
92.391
95.651
99.093
102.737
106.573
110.575
114.724
118.988
123.323
127.671
131.943
136.038
139.879
143.389
146.492
149.106
151.114
152.417
152.944
152.642
151.496
149.508
146.682
143.04
138.636
133.547
127.876
121.751
115.267
108.513
101.578
94.555
87.561
80.704
74.059
67.689
61.635
55.927
50.595
45.659
41.102
36.898
33
29.346
25.901
22.639
19.532
16.555
13.675
10.862
8.104
5.4
2.748
0.148
-2.402
-4.906
-7.348
-9.708
-11.964
-14.09
-16.07
-17.9
-19.573
-21.089
-22.447
-23.651
-24.711
-25.644
-26.46
-27.169
-27.781
-28.303
-28.747
-29.124
-29.448
-29.73
-29.98
-30.204
-30.411
-30.607
-30.796
-30.98
-31.162
-31.34
-31.517
-31.693
-31.869
-32.048
-32.232
-32.419
-32.611
-32.809
-33.013
-33.221
-33.431
-33.643
-33.852
-34.058
-34.257
-34.449
-34.63
-34.798
-34.953
-35.092
-35.215
-35.321
-35.41
-35.481
-35.535
-35.572
-35.593
-35.598
-35.589
-35.568
-35.537
-35.496
-35.447
-35.392
-35.332
-35.27
-35.205
-35.139
-35.073
-35.009
-34.946
-34.887
-34.832
-34.783
-34.74
-34.705
-34.678
-34.659
-34.651
-34.651
-34.662
-34.681
-34.708
-34.743
-34.784
-34.829
-34.878
-34.929
-34.981
-35.03
-35.077
-35.119
-35.155
-35.182
-35.201
-35.209
-35.205
-35.189
-35.161
-35.12
-35.066
-34.999
-34.92
-34.828
-34.725
-34.612
-34.488
-34.354
-34.212
-34.063
-33.908
-33.748
-33.586
-33.422
-33.258
-33.098
-32.942
-32.793
-32.654
-32.526
-32.412
-32.314
-32.234
-32.174
-32.135
-32.12
-32.13
-32.166
-32.229
-32.32
-32.439
-32.587
-32.763
-32.968
-33.201
-33.461
-33.747
-34.06
-34.397
-34.759
-35.144
-35.551
-35.978
-36.425
-36.889
-37.37
-37.864
-38.371
-38.888
-39.412
-39.942
-40.475
-41.008
-41.539
-42.064
-42.581
-43.087
-43.579
-44.054
-44.508
-44.939
-45.343
-45.719
-46.062
-46.371
-46.642
-46.872
-47.06
-47.201
-47.294
-47.335
-47.32
-47.248
-47.116
-46.92
-46.659
-46.33
-45.931
-45.459
-44.913
-44.291
-43.593
-42.816
-41.961
-41.027
-40.015
-38.926
-37.762
-36.524
-35.216
-33.84
-32.401
-30.902
-29.349
-27.745
-26.098
-24.414
-22.698
-20.959
-19.204
-17.443
-15.685
-13.942
-12.224
-10.544
-8.911
-7.338
-5.836
-4.416
-3.087
-1.859
-0.739
0.262
1.134
1.867
2.452
2.882
3.15
3.252
3.18
2.935
2.519
1.934
1.181
0.259
-0.841
-2.124
-3.586
-5.224
-7.032
-8.996
-11.1
-13.321
-15.622
-17.969
-20.332
-22.682
-25.001
-27.266
-29.442
-31.492
-33.371
-35.043
-36.485
-37.671
-38.583
-39.232
-39.64
-39.848
-39.927
-39.918
-39.868
-39.844
-39.896
-40.091
-40.515
-41.21
-42.255
-43.769
-45.757
-48.158
-50.833
-53.448
-55.705
-57.424
-58.282
-57.934
-56.347
-53.601
-50.067
-46.574
-43.67
-41.586
-40.736
-41.393
-43.277
-45.854
-47.964
-47.612
-43.26
-33.703
-17.487
6.507
38.723
79.093
126.464
178.33
232.173
285.29
334.201
375.308
405.176
420.762
420.956
407.003
380.384
342.229
291.733
227.089
150.068
67.49
-8.082
-63.66
-92.927
-98.198
-89.831
-78.828
-71.452
-68.575
-66.694
-63.457
-58.939
-54.4
-52.061
-52.515
-54.797
-57.93
-60.622
-61.848
-61.365
-59.134
-55.327
-50.467
-45.07
-39.548
-34.349
-29.868
-26.29
-23.706
-22.102
-21.341
-21.294
-21.849
-22.876
-24.249
-25.87
-27.637
-29.444
-31.199
-32.798
-34.16
-35.24
-36.004
-36.438
-36.54
-36.32
-35.803
-35.027
-34.026
-32.83
-31.469
-29.969
-28.369
-26.71
-25.037
-23.391
-21.801
-20.285
-18.852
-17.508
-16.249
-15.067
-13.946
-12.867
-11.816
-10.779
-9.747
-8.709
-7.653
-6.564
-5.429
-4.234
-2.968
-1.62
-0.18
1.361
3.009
4.77
6.648
8.646
10.766
13.014
15.392
17.903
20.548
23.33
26.247
29.299
32.484
35.796
39.232
42.783
46.443
50.202
54.05
57.977
61.971
66.018
70.106
74.22
78.343
82.46
86.554
90.608
94.604
98.522
102.346
106.056
109.634
113.062
116.322
119.396
122.268
124.92
127.338
129.507
131.414
133.045
134.391
135.441
136.186
136.622
136.742
136.544
136.025
135.186
134.027
132.552
130.766
128.673
126.283
123.604
120.646
117.422
113.946
110.231
106.294
102.152
97.823
93.325
88.678
83.902
79.018
74.046
69.009
63.927
58.823
53.716
48.629
43.58
38.591
33.678
28.861
24.156
19.578
15.142
10.862
6.749
2.815
-0.932
-4.483
-7.83
-10.97
-13.897
-16.609
-19.105
-21.385
-23.45
-25.303
-26.947
-28.388
-29.63
-30.682
-31.552
-32.247
-32.779
-33.157
-33.393
-33.5
-33.488
-33.37
-33.159
-32.867
-32.506
-32.088
-31.624
-31.127
-30.606
-30.071
-29.533
-28.999
-28.479
-27.98
-27.508
-27.07
-26.67
-26.313
-26.004
-25.744
-25.537
-25.384
-25.287
-25.247
-25.262
-25.332
-25.457
-25.633
-25.858
-26.129
-26.441
-26.792
-27.175
-27.587
-28.022
-28.475
-28.94
-29.413
-29.888
-30.361
-30.826
-31.279
-31.716
-32.133
-32.527
-32.895
-33.234
-33.542
-33.818
-34.06
-34.266
-34.437
-34.57
-34.667
-34.726
-34.749
-34.735
-34.684
-34.598
-34.478
-34.325
-34.141
-33.928
-33.688
-33.424
-33.138
-32.832
-32.511
-32.178
-31.835
-31.486
-31.134
-30.782
-30.433
-30.09
-29.756
-29.432
-29.12
-28.822
-28.54
-28.274
-28.026
-27.796
-27.585
-27.393
-27.221
-27.069
-26.938
-26.828
-26.739
-26.672
-26.627
-26.603
-26.602
-26.623
-26.666
-26.732
-26.819
-26.927
-27.055
-27.202
-27.367
-27.549
-27.747
-27.958
-28.182
-28.418
-28.665
-28.921
-29.185
-29.457
-29.735
-30.02
-30.311
-30.607
-30.908
-31.213
-31.522
-31.834
-32.149
-32.465
-32.782
-33.098
-33.413
-33.723
-34.029
-34.326
-34.615
-34.891
-35.154
-35.402
-35.632
-35.842
-36.031
-36.197
-36.338
-36.453
-36.539
-36.595
-36.62
-36.61
-36.565
-36.481
-36.358
-36.192
-35.981
-35.723
-35.417
-35.06
-34.651
-34.186
-33.666
-33.088
-32.453
-31.758
-31.005
-30.192
-29.322
-28.395
-27.414
-26.379
-25.293
-24.158
-22.979
-21.757
-20.497
-19.203
-17.878
-16.527
-15.155
-13.769
-12.373
-10.975
-9.581
-8.2
-6.84
-5.511
-4.223
-2.985
-1.805
-0.695
0.336
1.282
2.136
2.889
3.535
4.066
4.473
4.75
4.891
4.888
4.739
4.437
3.983
3.378
2.626
1.73
0.688
-0.505
-1.853
-3.355
-5.008
-6.806
-8.74
-10.792
-12.94
-15.146
-17.376
-19.599
-21.789
-23.931
-26.006
-27.991
-29.854
-31.556
-33.065
-34.362
-35.429
-36.246
-36.811
-37.149
-37.312
-37.38
-37.425
-37.487
-37.602
-37.82
-38.19
-38.779
-39.659
-40.866
-42.458
-44.533
-47.103
-50.107
-53.369
-56.526
-59.211
-61.167
-62.067
-61.544
-59.522
-56.101
-51.701
-47.217
-43.317
-40.313
-38.643
-38.695
-40.321
-43.01
-45.511
-45.748
-42.164
-33.534
-18.367
4.728
36.896
77.727
124.594
174.455
224.515
274.733
327.87
382.885
435.656
477.898
496.914
486.46
446.501
380.85
298.18
206.121
110.938
21.949
-49.713
-96.66
-116.454
-114.718
-104.244
-93.973
-87.939
-85.608
-82.113
-76.072
-68.915
-62.353
-58.903
-58.97
-61.225
-64.624
-67.841
-69.677
-69.757
-67.97
-64.454
-59.752
-54.411
-48.85
-43.543
-38.945
-35.28
-32.65
-31.031
-30.259
-30.185
-30.693
-31.647
-32.916
-34.404
-36.011
-37.638
-39.204
-40.612
-41.788
-42.688
-43.281
-43.555
-43.511
-43.163
-42.54
-41.679
-40.618
-39.386
-38.011
-36.519
-34.945
-33.329
-31.713
-30.136
-28.624
-27.193
-25.852
-24.604
-23.443
-22.359
-21.332
-20.342
-19.37
-18.404
-17.428
-16.431
-15.399
-14.316
-13.167
-11.937
-10.615
-9.188
-7.646
-5.982
-4.188
-2.259
-0.194
2.01
4.354
6.841
9.47
12.244
15.162
18.223
21.423
24.761
28.23
31.825
35.538
39.36
43.28
47.288
51.371
55.517
59.712
63.94
68.188
72.438
76.673
80.876
85.029
89.114
93.113
97.006
100.776
104.405
107.876
111.171
114.275
117.171
119.845
122.282
124.47
126.397
128.052
129.425
130.508
131.294
131.778
131.955
131.823
131.381
130.629
129.568
128.203
126.537
124.576
122.328
119.803
117.009
113.959
110.666
107.143
103.406
99.471
95.354
91.074
86.648
82.095
77.435
72.685
67.867
63
58.102
53.194
48.293
43.418
38.587
33.816
29.122
24.52
20.025
15.651
11.41
7.314
3.374
-0.402
-4.003
-7.423
-10.656
-13.698
-16.544
-19.193
-21.644
-23.896
-25.952
-27.813
-29.485
-30.97
-32.276
-33.409
-34.376
-35.185
-35.847
-36.369
-36.761
-37.034
-37.198
-37.263
-37.24
-37.137
-36.966
-36.737
-36.458
-36.14
-35.791
-35.419
-35.034
-34.642
-34.251
-33.867
-33.496
-33.144
-32.814
-32.512
-32.24
-32.001
-31.797
-31.629
-31.498
-31.403
-31.345
-31.322
-31.331
-31.37
-31.437
-31.529
-31.641
-31.771
-31.915
-32.069
-32.229
-32.392
-32.553
-32.71
-32.859
-32.996
-33.118
-33.223
-33.309
-33.372
-33.412
-33.427
-33.415
-33.377
-33.31
-33.215
-33.092
-32.942
-32.766
-32.564
-32.339
-32.092
-31.825
-31.541
-31.243
-30.933
-30.615
-30.291
-29.964
-29.638
-29.316
-29.001
-28.696
-28.404
-28.128
-27.869
-27.632
-27.417
-27.227
-27.063
-26.927
-26.821
-26.744
-26.698
-26.682
-26.697
-26.743
-26.818
-26.923
-27.055
-27.215
-27.399
-27.608
-27.838
-28.088
-28.356
-28.64
-28.939
-29.249
-29.569
-29.898
-30.233
-30.573
-30.917
-31.262
-31.609
-31.954
-32.298
-32.64
-32.977
-33.31
-33.638
-33.96
-34.276
-34.585
-34.887
-35.181
-35.469
-35.749
-36.022
-36.289
-36.549
-36.804
-37.053
-37.296
-37.535
-37.769
-37.998
-38.221
-38.438
-38.649
-38.851
-39.045
-39.227
-39.396
-39.55
-39.686
-39.802
-39.894
-39.959
-39.993
-39.995
-39.961
-39.888
-39.774
-39.615
-39.41
-39.154
-38.848
-38.487
-38.07
-37.595
-37.06
-36.464
-35.805
-35.082
-34.295
-33.443
-32.528
-31.549
-30.51
-29.411
-28.255
-27.046
-25.788
-24.487
-23.147
-21.776
-20.382
-18.972
-17.557
-16.146
-14.751
-13.382
-12.05
-10.765
-9.538
-8.379
-7.295
-6.296
-5.388
-4.581
-3.884
-3.305
-2.855
-2.54
-2.37
-2.349
-2.485
-2.78
-3.235
-3.848
-4.618
-5.549
-6.648
-7.92
-9.365
-10.979
-12.757
-14.686
-16.75
-18.923
-21.169
-23.452
-25.74
-28.007
-30.237
-32.411
-34.504
-36.484
-38.312
-39.955
-41.395
-42.613
-43.592
-44.33
-44.852
-45.205
-45.469
-45.708
-45.959
-46.257
-46.645
-47.17
-47.897
-48.891
-50.183
-51.826
-53.909
-56.429
-59.319
-62.408
-65.333
-67.752
-69.444
-70.1
-69.394
-67.304
-63.925
-59.651
-55.368
-51.677
-48.82
-47.211
-47.14
-48.338
-50.322
-51.95
-51.137
-46.366
-36.699
-20.701
2.91
34.558
74.455
120.891
169.628
218.434
266.113
311.991
357.53
398.93
428.412
438.977
423.71
384.628
330.04
266.776
201.804
135.633
67.871
4.29
-49.088
-84.073
-97.735
-96.321
-86.629
-76.441
-69.475
-63.765
-58.782
-54.08
-49.95
-48.529
-50.125
-53.829
-58.835
-63.687
-67.175
-68.962
-68.89
-67.036
-63.87
-59.887
-55.488
-51.151
-47.304
-44.137
-41.743
-40.123
-39.151
-38.714
-38.723
-39.061
-39.619
-40.33
-41.123
-41.93
-42.687
-43.306
-43.718
-43.889
-43.794
-43.426
-42.788
-41.89
-40.754
-39.419
-37.919
-36.285
-34.543
-32.715
-30.832
-28.931
-27.053
-25.24
-23.522
-21.914
-20.428
-19.068
-17.83
-16.705
-15.678
-14.725
-13.826
-12.967
-12.131
-11.304
-10.471
-9.612
-8.709
-7.742
-6.694
-5.549
-4.293
-2.912
-1.394
0.271
2.09
4.068
6.212
8.526
11.015
13.684
16.533
19.565
22.778
26.17
29.736
33.471
37.365
41.408
45.587
49.89
54.3
58.802
63.376
68.006
72.669
77.347
82.017
86.656
91.244
95.756
100.171
104.466
108.618
112.606
116.408
120.005
123.376
126.504
129.37
131.958
134.253
136.243
137.914
139.258
140.264
140.927
141.241
141.205
140.816
140.077
138.991
137.563
135.799
133.709
131.304
128.594
125.595
122.321
118.787
115.012
111.013
106.81
102.422
97.869
93.173
88.354
83.433
78.432
73.371
68.272
63.155
58.041
52.949
47.897
42.905
37.99
33.168
28.454
23.862
19.406
15.098
10.948
6.965
3.157
-0.469
-3.908
-7.157
-10.213
-13.075
-15.743
-18.217
-20.501
-22.596
-24.507
-26.238
-27.795
-29.184
-30.413
-31.488
-32.417
-33.209
-33.872
-34.416
-34.849
-35.18
-35.418
-35.573
-35.652
-35.666
-35.622
-35.529
-35.395
-35.227
-35.033
-34.82
-34.595
-34.362
-34.127
-33.896
-33.671
-33.457
-33.258
-33.075
-32.912
-32.771
-32.654
-32.562
-32.495
-32.455
-32.441
-32.454
-32.493
-32.556
-32.644
-32.755
-32.888
-33.042
-33.216
-33.408
-33.617
-33.841
-34.079
-34.329
-34.589
-34.857
-35.132
-35.411
-35.694
-35.979
-36.263
-36.546
-36.825
-37.099
-37.366
-37.625
-37.872
-38.107
-38.326
-38.529
-38.713
-38.877
-39.019
-39.139
-39.234
-39.303
-39.346
-39.362
-39.349
-39.306
-39.232
-39.127
-38.99
-38.821
-38.619
-38.384
-38.117
-37.818
-37.486
-37.124
-36.732
-36.31
-35.86
-35.385
-34.885
-34.364
-33.824
-33.27
-32.704
-32.13
-31.553
-30.977
-30.406
-29.844
-29.295
-28.763
-28.253
-27.767
-27.311
-26.887
-26.499
-26.151
-25.845
-25.584
-25.371
-25.207
-25.094
-25.034
-25.027
-25.074
-25.176
-25.332
-25.541
-25.803
-26.115
-26.476
-26.881
-27.328
-27.811
-28.325
-28.865
-29.423
-29.994
-30.571
-31.145
-31.711
-32.26
-32.785
-33.278
-33.731
-34.137
-34.488
-34.778
-34.999
-35.147
-35.214
-35.195
-35.087
-34.884
-34.583
-34.18
-33.673
-33.059
-32.336
-31.505
-30.564
-29.515
-28.36
-27.101
-25.744
-24.292
-22.752
-21.131
-19.436
-17.675
-15.859
-13.996
-12.099
-10.176
-8.242
-6.31
-4.394
-2.508
-0.668
1.114
2.824
4.447
5.973
7.39
8.691
9.865
10.903
11.795
12.53
13.101
13.498
13.717
13.752
13.597
13.251
12.718
12.003
11.107
10.029
8.764
7.306
5.659
3.827
1.818
-0.352
-2.665
-5.094
-7.601
-10.145
-12.693
-15.213
-17.686
-20.088
-22.386
-24.541
-26.508
-28.25
-29.746
-30.972
-31.912
-32.578
-32.997
-33.216
-33.314
-33.342
-33.351
-33.412
-33.581
-33.926
-34.541
-35.476
-36.815
-38.685
-41.093
-43.971
-47.167
-50.317
-53.073
-55.21
-56.355
-56.124
-54.497
-51.596
-47.86
-44.251
-41.457
-39.847
-39.975
-42.163
-46.032
-50.866
-55.232
-56.826
-53.835
-44.731
-27.709
-1.569
33.987
78.525
130.352
186.664
244.761
301.438
352.721
395.031
425.216
440.941
441.188
425.669
394.674
349.988
294.713
232.451
167.313
103.057
42.907
-9.691
-51.933
-82.608
-101.754
-110.444
-110.61
-104.178
-93.225
-80.545
-68.693
-59.228
-52.913
-49.687
-48.951
-50.167
-52.663
-55.336
-57.102
-57.362
-55.954
-53.142
-49.429
-45.208
-40.819
-36.69
-33.24
-30.706
-29.16
-28.519
-28.594
-29.226
-30.296
-31.671
-33.229
-34.861
-36.458
-37.928
-39.196
-40.202
-40.909
-41.293
-41.341
-41.05
-40.436
-39.529
-38.371
-37.007
-35.472
-33.798
-32.013
-30.153
-28.258
-26.372
-24.533
-22.77
-21.098
-19.525
-18.058
-16.695
-15.429
-14.243
-13.116
-12.031
-10.974
-9.932
-8.892
-7.839
-6.756
-5.627
-4.435
-3.167
-1.809
-0.347
1.23
2.931
4.767
6.742
8.863
11.134
13.562
16.151
18.905
21.825
24.913
28.169
31.59
35.174
38.914
42.803
46.833
50.992
55.271
59.655
64.13
68.681
73.292
77.944
82.62
87.298
91.959
96.582
101.145
105.626
110.003
114.253
118.354
122.284
126.021
129.546
132.836
135.875
138.643
141.125
143.305
145.17
146.708
147.908
148.763
149.267
149.413
149.201
148.63
147.7
146.415
144.779
142.801
140.487
137.849
134.899
131.648
128.113
124.31
120.255
115.968
111.468
106.776
101.913
96.902
91.764
86.523
81.202
75.824
70.41
64.984
59.567
54.178
48.839
43.568
38.383
33.301
28.337
23.506
18.82
14.292
9.932
5.749
1.75
-2.058
-5.671
-9.084
-12.297
-15.306
-18.114
-20.719
-23.127
-25.338
-27.359
-29.195
-30.852
-32.338
-33.661
-34.829
-35.853
-36.74
-37.502
-38.148
-38.687
-39.129
-39.483
-39.759
-39.965
-40.11
-40.203
-40.25
-40.261
-40.24
-40.195
-40.132
-40.055
-39.971
-39.882
-39.794
-39.71
-39.634
-39.567
-39.514
-39.475
-39.454
-39.451
-39.466
-39.502
-39.556
-39.63
-39.723
-39.833
-39.96
-40.104
-40.262
-40.435
-40.621
-40.82
-41.03
-41.251
-41.482
-41.721
-41.968
-42.223
-42.484
-42.752
-43.024
-43.302
-43.584
-43.869
-44.157
-44.446
-44.735
-45.022
-45.307
-45.586
-45.859
-46.125
-46.38
-46.624
-46.856
-47.073
-47.275
-47.461
-47.628
-47.775
-47.902
-48.006
-48.086
-48.142
-48.173
-48.177
-48.154
-48.103
-48.024
-47.917
-47.78
-47.616
-47.423
-47.201
-46.953
-46.678
-46.379
-46.057
-45.714
-45.354
-44.978
-44.591
-44.196
-43.796
-43.395
-42.996
-42.604
-42.222
-41.854
-41.503
-41.174
-40.87
-40.594
-40.35
-40.141
-39.97
-39.838
-39.749
-39.704
-39.705
-39.754
-39.85
-39.995
-40.189
-40.433
-40.725
-41.066
-41.453
-41.886
-42.362
-42.878
-43.431
-44.018
-44.634
-45.275
-45.936
-46.612
-47.298
-47.988
-48.676
-49.357
-50.023
-50.671
-51.292
-51.882
-52.433
-52.94
-53.397
-53.799
-54.14
-54.415
-54.619
-54.748
-54.797
-54.762
-54.641
-54.429
-54.123
-53.722
-53.224
-52.626
-51.928
-51.129
-50.23
-49.232
-48.136
-46.945
-45.661
-44.288
-42.83
-41.291
-39.678
-37.996
-36.253
-34.454
-32.609
-30.727
-28.817
-26.888
-24.951
-23.016
-21.096
-19.202
-17.349
-15.547
-13.81
-12.15
-10.579
-9.11
-7.752
-6.514
-5.408
-4.441
-3.625
-2.97
-2.486
-2.179
-2.056
-2.125
-2.39
-2.855
-3.516
-4.372
-5.42
-6.66
-8.1
-9.739
-11.572
-13.594
-15.792
-18.155
-20.661
-23.284
-25.985
-28.727
-31.478
-34.21
-36.907
-39.542
-42.086
-44.5
-46.74
-48.773
-50.581
-52.145
-53.44
-54.465
-55.242
-55.816
-56.262
-56.631
-56.948
-57.238
-57.542
-57.917
-58.431
-59.158
-60.135
-61.412
-63.067
-65.094
-67.414
-69.834
-72.007
-73.594
-74.378
-74.1
-72.474
-69.484
-65.281
-60.255
-55.153
-50.496
-46.446
-43.257
-41.199
-40.047
-39.233
-37.693
-33.784
-26.229
-14.214
3.115
26.73
57.277
94.748
138.335
185.542
232.891
277.608
317.737
353.725
387.516
418.202
441.812
450.486
435.247
393.574
327.852
244.333
153.512
63.231
-18.283
-80.167
-117.563
-129.98
-122.365
-106.971
-92.463
-82.286
-76.539
-71.412
-65.108
-58.457
-52.775
-49.793
-49.587
-51.094
-53.151
-54.333
-54.025
-52.244
-49.095
-45.022
-40.519
-35.937
-31.73
-28.369
-26.067
-24.888
-24.788
-25.571
-27.064
-29.132
-31.602
-34.296
-37.066
-39.762
-42.255
-44.474
-46.366
-47.884
-49.007
-49.72
-50.021
-49.937
-49.507
-48.77
-47.765
-46.527
-45.09
-43.494
-41.788
-40.022
-38.249
-36.503
-34.806
-33.173
-31.614
-30.131
-28.722
-27.373
-26.066
-24.783
-23.513
-22.244
-20.967
-19.672
-18.341
-16.963
-15.522
-14.008
-12.411
-10.722
-8.932
-7.034
-5.023
-2.893
-0.643
1.731
4.234
6.87
9.644
12.558
15.612
18.808
22.144
25.617
29.224
32.957
36.81
40.774
44.841
49.002
53.248
57.566
61.944
66.37
70.83
75.307
79.785
84.241
88.658
93.018
97.3
101.487
105.561
109.502
113.292
116.917
120.359
123.6
126.62
129.39
131.893
134.118
136.059
137.717
139.091
140.177
140.981
141.513
141.776
141.771
141.485
140.893
139.982
138.75
137.206
135.371
133.257
130.858
128.171
125.19
121.905
118.318
114.412
110.153
105.536
100.577
95.322
89.852
84.226
78.485
72.662
66.773
60.851
54.944
49.091
43.329
37.701
32.247
27.031
22.146
17.644
13.54
9.817
6.41
3.277
0.401
-2.237
-4.648
-6.851
-8.875
-10.734
-12.427
-13.97
-15.385
-16.717
-18.036
-19.382
-20.763
-22.167
-23.549
-24.879
-26.149
-27.343
-28.447
-29.453
-30.35
-31.142
-31.853
-32.492
-33.061
-33.551
-33.936
-34.21
-34.377
-34.454
-34.464
-34.428
-34.359
-34.271
-34.184
-34.11
-34.058
-34.03
-34.016
-34.011
-34.018
-34.039
-34.079
-34.143
-34.23
-34.338
-34.466
-34.612
-34.774
-34.948
-35.131
-35.316
-35.504
-35.692
-35.883
-36.076
-36.271
-36.467
-36.661
-36.853
-37.041
-37.223
-37.395
-37.555
-37.701
-37.832
-37.946
-38.042
-38.121
-38.18
-38.221
-38.243
-38.246
-38.232
-38.199
-38.148
-38.079
-37.993
-37.889
-37.767
-37.628
-37.471
-37.298
-37.108
-36.902
-36.68
-36.442
-36.189
-35.922
-35.641
-35.346
-35.04
-34.724
-34.398
-34.065
-33.727
-33.385
-33.042
-32.699
-32.358
-32.021
-31.688
-31.361
-31.041
-30.73
-30.429
-30.138
-29.861
-29.597
-29.348
-29.116
-28.903
-28.71
-28.538
-28.39
-28.267
-28.171
-28.103
-28.064
-28.058
-28.084
-28.144
-28.24
-28.372
-28.539
-28.743
-28.983
-29.258
-29.567
-29.91
-30.286
-30.692
-31.127
-31.59
-32.078
-32.59
-33.122
-33.672
-34.236
-34.813
-35.397
-35.984
-36.572
-37.155
-37.729
-38.29
-38.831
-39.349
-39.838
-40.291
-40.704
-41.07
-41.384
-41.638
-41.828
-41.949
-41.994
-41.96
-41.841
-41.635
-41.338
-40.945
-40.456
-39.867
-39.178
-38.385
-37.489
-36.491
-35.39
-34.189
-32.89
-31.496
-30.011
-28.44
-26.788
-25.062
-23.267
-21.411
-19.502
-17.55
-15.562
-13.55
-11.526
-9.501
-7.489
-5.506
-3.566
-1.682
0.129
1.856
3.483
5
6.395
7.659
8.782
9.753
10.561
11.195
11.65
11.917
11.992
11.87
11.547
11.027
10.314
9.412
8.322
7.043
5.567
3.891
2.021
-0.037
-2.273
-4.671
-7.214
-9.873
-12.608
-15.383
-18.16
-20.909
-23.61
-26.229
-28.723
-31.047
-33.148
-34.987
-36.541
-37.783
-38.701
-39.304
-39.606
-39.645
-39.479
-39.158
-38.751
-38.333
-37.969
-37.747
-37.747
-38.068
-38.864
-40.17
-41.912
-43.937
-45.951
-47.677
-48.976
-49.573
-49.06
-47.373
-44.661
-41.361
-38.341
-36.151
-34.932
-35.007
-36.747
-39.991
-44.147
-47.892
-49.16
-46.387
-38.447
-23.991
-1.649
29.452
69.378
116.936
169.894
226.05
283.001
337.582
385.981
424.216
448.867
458.542
453.694
434.747
402.812
357.141
294.818
217.073
128.42
39.149
-34.054
-80.81
-98.882
-94.195
-80.925
-68.899
-61.371
-57.566
-53.106
-46.627
-39.623
-33.798
-31.121
-31.72
-34.518
-38.554
-42.531
-45.411
-46.805
-46.605
-45.063
-42.678
-39.854
-36.912
-34.226
-32.153
-30.896
-30.505
-30.901
-31.9
-33.339
-35.101
-37.069
-39.107
-41.105
-42.951
-44.548
-45.851
-46.825
-47.444
-47.7
-47.591
-47.123
-46.326
-45.242
-43.91
-42.372
-40.661
-38.806
-36.842
-34.813
-32.761
-30.736
-28.769
-26.882
-25.089
-23.4
-21.819
-20.345
-18.969
-17.67
-16.435
-15.249
-14.102
-12.983
-11.881
-10.778
-9.658
-8.507
-7.309
-6.052
-4.723
-3.309
-1.8
-0.186
1.541
3.386
5.356
7.458
9.698
12.082
14.614
17.297
20.134
23.126
26.272
29.57
33.015
36.602
40.324
44.172
48.137
52.208
56.371
60.614
64.92
69.274
73.658
78.055
82.444
86.807
91.123
95.373
99.536
103.591
107.517
111.296
114.906
118.328
121.544
124.535
127.284
129.774
131.991
133.921
135.55
136.867
137.863
138.53
138.861
138.852
138.498
137.8
136.756
135.371
133.647
131.59
129.209
126.513
123.512
120.219
116.648
112.813
108.732
104.42
99.896
95.18
90.289
85.246
80.069
74.782
69.404
63.958
58.466
52.949
47.428
41.924
36.458
31.051
25.72
20.486
15.365
10.375
5.531
0.848
-3.661
-7.983
-12.109
-16.029
-19.736
-23.225
-26.491
-29.53
-32.342
-34.925
-37.281
-39.412
-41.32
-43.01
-44.487
-45.758
-46.829
-47.709
-48.407
-48.933
-49.297
-49.509
-49.582
-49.526
-49.354
-49.078
-48.711
-48.265
-47.753
-47.187
-46.579
-45.942
-45.287
-44.623
-43.962
-43.311
-42.68
-42.075
-41.503
-40.97
-40.481
-40.039
-39.649
-39.314
-39.035
-38.814
-38.651
-38.547
-38.5
-38.51
-38.575
-38.692
-38.858
-39.07
-39.325
-39.617
-39.944
-40.299
-40.677
-41.072
-41.479
-41.892
-42.304
-42.71
-43.104
-43.481
-43.836
-44.165
-44.463
-44.728
-44.957
-45.147
-45.295
-45.4
-45.462
-45.478
-45.449
-45.375
-45.256
-45.093
-44.888
-44.641
-44.354
-44.03
-43.671
-43.278
-42.856
-42.407
-41.934
-41.441
-40.933
-40.414
-39.889
-39.362
-38.838
-38.321
-37.816
-37.327
-36.857
-36.41
-35.99
-35.598
-35.238
-34.911
-34.62
-34.366
-34.15
-33.972
-33.833
-33.732
-33.67
-33.645
-33.657
-33.703
-33.784
-33.897
-34.041
-34.213
-34.412
-34.634
-34.876
-35.134
-35.404
-35.683
-35.965
-36.245
-36.519
-36.782
-37.029
-37.255
-37.456
-37.627
-37.763
-37.861
-37.916
-37.925
-37.883
-37.787
-37.633
-37.419
-37.143
-36.802
-36.393
-35.917
-35.37
-34.752
-34.062
-33.299
-32.463
-31.553
-30.571
-29.518
-28.394
-27.204
-25.948
-24.633
-23.26
-21.836
-20.366
-18.855
-17.31
-15.736
-14.139
-12.528
-10.909
-9.291
-7.679
-6.084
-4.515
-2.983
-1.497
-0.068
1.294
2.581
3.78
4.884
5.885
6.779
7.558
8.216
8.745
9.139
9.392
9.501
9.463
9.273
8.931
8.437
7.794
7.009
6.087
5.028
3.829
2.487
1
-0.627
-2.387
-4.273
-6.273
-8.37
-10.54
-12.749
-14.965
-17.161
-19.313
-21.401
-23.396
-25.261
-26.965
-28.471
-29.748
-30.778
-31.55
-32.062
-32.327
-32.367
-32.204
-31.897
-31.508
-31.106
-30.772
-30.572
-30.567
-30.839
-31.499
-32.597
-34.108
-35.909
-37.747
-39.376
-40.623
-41.297
-41.132
-39.983
-37.928
-35.269
-32.645
-30.714
-29.786
-30.072
-31.845
-35.081
-39.328
-43.717
-46.705
-46.511
-41.907
-31.9
-15.313
8.76
40.709
80.37
125.637
172.723
218.721
261.734
302.151
341.846
379.515
409.72
423.558
412.89
375.317
315.11
240.899
160.447
79.451
2.944
-63.629
-113.489
-141.161
-147.508
-137.943
-119.211
-99.939
-83.526
-70.502
-62.976
-58.152
-54.643
-52.651
-49.672
-46.94
-45.645
-44.923
-44.956
-44.633
-42.899
-40.063
-36.433
-32.49
-28.739
-25.455
-22.928
-21.35
-20.75
-21.032
-21.982
-23.435
-25.278
-27.365
-29.568
-31.742
-33.739
-35.48
-36.936
-38.077
-38.89
-39.368
-39.494
-39.286
-38.785
-38.027
-37.052
-35.895
-34.578
-33.135
-31.609
-30.039
-28.475
-26.947
-25.472
-24.062
-22.723
-21.455
-20.26
-19.128
-18.038
-16.974
-15.922
-14.871
-13.812
-12.732
-11.617
-10.45
-9.217
-7.907
-6.508
-5.011
-3.406
-1.684
0.162
2.137
4.245
6.488
8.873
11.403
14.083
16.914
19.897
23.033
26.322
29.762
33.348
37.075
40.936
44.924
49.029
53.242
57.551
61.943
66.406
70.923
75.481
80.062
84.65
89.226
93.772
98.269
102.697
107.037
111.27
115.374
119.33
123.12
126.723
130.123
133.3
136.238
138.922
141.336
143.468
145.304
146.834
148.048
148.939
149.499
149.726
149.615
149.165
148.377
147.253
145.796
144.013
141.909
139.493
136.775
133.766
130.479
126.927
123.125
119.091
114.84
110.392
105.765
100.978
96.051
91.004
85.859
80.635
75.353
70.033
64.696
59.361
54.047
48.774
43.56
38.422
33.377
28.44
23.626
18.95
14.423
10.057
5.863
1.85
-1.974
-5.602
-9.028
-12.248
-15.259
-18.058
-20.645
-23.021
-25.185
-27.142
-28.894
-30.446
-31.802
-32.969
-33.954
-34.763
-35.404
-35.886
-36.218
-36.408
-36.466
-36.402
-36.226
-35.948
-35.578
-35.126
-34.603
-34.018
-33.381
-32.702
-31.991
-31.256
-30.506
-29.749
-28.993
-28.246
-27.513
-26.802
-26.117
-25.463
-24.845
-24.266
-23.73
-23.239
-22.796
-22.401
-22.056
-21.762
-21.518
-21.324
-21.179
-21.081
-21.029
-21.021
-21.054
-21.125
-21.231
-21.369
-21.534
-21.723
-21.931
-22.155
-22.39
-22.632
-22.877
-23.121
-23.359
-23.589
-23.808
-24.011
-24.197
-24.364
-24.509
-24.63
-24.727
-24.797
-24.842
-24.86
-24.851
-24.816
-24.756
-24.671
-24.565
-24.437
-24.291
-24.128
-23.952
-23.766
-23.571
-23.373
-23.174
-22.979
-22.79
-22.613
-22.451
-22.308
-22.187
-22.093
-22.027
-21.994
-21.994
-22.03
-22.104
-22.217
-22.37
-22.562
-22.795
-23.067
-23.379
-23.728
-24.113
-24.532
-24.983
-25.462
-25.966
-26.491
-27.034
-27.59
-28.156
-28.725
-29.295
-29.859
-30.412
-30.948
-31.461
-31.947
-32.397
-32.807
-33.17
-33.482
-33.738
-33.933
-34.063
-34.124
-34.114
-34.029
-33.868
-33.629
-33.309
-32.909
-32.427
-31.865
-31.224
-30.505
-29.709
-28.84
-27.9
-26.894
-25.826
-24.7
-23.52
-22.292
-21.022
-19.716
-18.382
-17.027
-15.66
-14.29
-12.927
-11.583
-10.268
-8.991
-7.765
-6.598
-5.5
-4.48
-3.544
-2.698
-1.948
-1.302
-0.767
-0.349
-0.052
0.116
0.151
0.044
-0.206
-0.602
-1.14
-1.819
-2.639
-3.602
-4.718
-5.984
-7.399
-8.959
-10.659
-12.49
-14.434
-16.46
-18.525
-20.592
-22.626
-24.604
-26.507
-28.307
-29.974
-31.479
-32.797
-33.915
-34.83
-35.526
-35.996
-36.254
-36.34
-36.332
-36.329
-36.412
-36.639
-37.061
-37.724
-38.691
-40.034
-41.807
-44.045
-46.734
-49.869
-53.48
-57.525
-61.865
-66.239
-70.228
-73.411
-75.491
-76.233
-75.428
-73.067
-69.261
-64.322
-58.91
-53.697
-49.231
-45.811
-43.361
-41.381
-39.188
-35.855
-29.96
-19.97
-4.336
18.081
47.461
83.177
124.18
168.851
214.668
258.535
296.786
325.824
343.141
347.064
336.362
310.753
271.355
220.493
161.797
99.574
37.65
-20.384
-70.835
-110.778
-138.655
-154.208
-158.573
-153.844
-142.154
-125.864
-107.896
-90.885
-76.549
-65.791
-58.658
-54.608
-53.08
-53.37
-54.342
-54.926
-54.557
-53.036
-50.531
-47.432
-44.02
-40.566
-37.473
-35.112
-33.659
-33.137
-33.411
-34.267
-35.553
-37.13
-38.849
-40.562
-42.121
-43.433
-44.462
-45.202
-45.656
-45.822
-45.694
-45.279
-44.611
-43.724
-42.658
-41.446
-40.117
-38.704
-37.247
-35.788
-34.37
-33.025
-31.767
-30.605
-29.544
-28.582
-27.718
-26.942
-26.237
-25.584
-24.969
-24.38
-23.804
-23.229
-22.637
-22.012
-21.336
-20.595
-19.778
-18.874
-17.871
-16.76
-15.533
-14.184
-12.711
-11.108
-9.37
-7.493
-5.472
-3.303
-0.986
1.482
4.1
6.867
9.78
12.833
16.021
19.334
22.764
26.302
29.935
33.651
37.437
41.276
45.154
49.054
52.959
56.849
60.706
64.511
68.245
71.889
75.424
78.83
82.09
85.186
88.101
90.818
93.321
95.594
97.623
99.394
100.895
102.114
103.042
103.67
103.991
104
103.693
103.069
102.127
100.869
99.298
97.419
95.238
92.764
90.006
86.975
83.684
80.148
76.381
72.398
68.218
63.857
59.332
54.663
49.867
44.963
39.97
34.908
29.794
24.649
19.491
14.338
9.209
4.121
-0.909
-5.865
-10.732
-15.495
-20.14
-24.656
-29.03
-33.253
-37.317
-41.212
-44.935
-48.479
-51.842
-55.022
-58.019
-60.832
-63.464
-65.918
-68.196
-70.304
-72.245
-74.027
-75.656
-77.137
-78.479
-79.69
-80.777
-81.748
-82.614
-83.381
-84.06
-84.659
-85.187
-85.652
-86.064
-86.43
-86.759
-87.059
-87.337
-87.6
-87.853
-88.103
-88.354
-88.611
-88.876
-89.152
-89.441
-89.745
-90.063
-90.396
-90.743
-91.103
-91.476
-91.858
-92.247
-92.643
-93.041
-93.44
-93.836
-94.226
-94.607
-94.977
-95.331
-95.667
-95.982
-96.273
-96.535
-96.768
-96.967
-97.131
-97.256
-97.342
-97.386
-97.387
-97.345
-97.258
-97.128
-96.954
-96.736
-96.478
-96.179
-95.842
-95.47
-95.066
-94.631
-94.17
-93.685
-93.18
-92.659
-92.124
-91.58
-91.029
-90.475
-89.922
-89.372
-88.829
-88.297
-87.779
-87.276
-86.794
-86.334
-85.898
-85.489
-85.109
-84.759
-84.44
-84.155
-83.904
-83.688
-83.506
-83.359
-83.246
-83.167
-83.121
-83.105
-83.119
-83.16
-83.226
-83.316
-83.427
-83.556
-83.702
-83.861
-84.032
-84.212
-84.398
-84.586
-84.775
-84.96
-85.139
-85.309
-85.466
-85.607
-85.73
-85.831
-85.909
-85.96
-85.982
-85.972
-85.929
-85.85
-85.733
-85.576
-85.378
-85.138
-84.854
-84.527
-84.157
-83.742
-83.282
-82.779
-82.232
-81.643
-81.011
-80.338
-79.626
-78.876
-78.09
-77.272
-76.426
-75.554
-74.661
-73.754
-72.837
-71.917
-71
-70.092
-69.199
-68.329
-67.487
-66.678
-65.908
-65.181
-64.505
-63.884
-63.326
-62.836
-62.419
-62.082
-61.832
-61.675
-61.616
-61.654
-61.789
-62.025
-62.367
-62.825
-63.402
-64.096
-64.906
-65.83
-66.866
-68.005
-69.226
-70.494
-71.777
-73.048
-74.286
-75.483
-76.62
-77.669
-78.599
-79.382
-80.002
-80.461
-80.754
-80.863
-80.787
-80.545
-80.192
-79.824
-79.521
-79.338
-79.316
-79.477
-79.86
-80.539
-81.578
-83.034
-84.94
-87.254
-89.963
-93.113
-96.647
-100.43
-104.204
-107.487
-109.853
-111.126
-111.148
-109.81
-107.197
-103.308
-98.35
-93.061
-88.14
-83.95
-80.643
-77.857
-74.824
-71.143
-66.19
-58.563
-46.84
-29.722
-6.285
23.16
57.531
96.095
137.56
179.521
219.244
253.389
278.609
292.996
295.375
284.369
259.747
222.719
175.167
120.391
62.689
5.478
-47.936
-93.58
-129.831
-156.308
-171.563
-176.476
-171.162
-155.166
-133.746
-111.751
-93.957
-85.363
-83.394
-85.029
-87.679
-87.571
-85.976
-83.876
-81.063
-78.653
-75.787
-71.792
-67.263
-62.337
-57.511
-53.497
-50.407
-48.216
-46.929
-46.348
-46.299
-46.682
-47.357
-48.184
-49.068
-49.909
-50.601
-51.095
-51.357
-51.356
-51.082
-50.52
-49.663
-48.534
-47.169
-45.605
-43.875
-42.007
-40.023
-37.953
-35.831
-33.695
-31.582
-29.517
-27.512
-25.576
-23.712
-21.921
-20.199
-18.532
-16.899
-15.283
-13.67
-12.047
-10.407
-8.734
-7.014
-5.233
-3.378
-1.438
0.597
2.735
4.987
7.357
9.852
12.475
15.226
18.11
21.128
24.283
27.578
31.011
34.584
38.294
42.141
46.119
50.223
54.446
58.781
63.219
67.75
72.363
77.045
81.786
86.57
91.384
96.213
101.042
105.854
110.633
115.363
120.027
124.609
129.092
133.46
137.698
141.789
145.719
149.473
153.038
156.398
159.543
162.459
165.136
167.565
169.736
171.642
173.277
174.635
175.713
176.509
177.021
177.25
177.197
176.866
176.26
175.387
174.253
172.866
171.236
169.375
167.294
165.007
162.527
159.868
157.048
154.08
150.982
147.772
144.466
141.082
137.639
134.155
130.648
127.137
123.639
120.173
116.757
113.407
110.14
106.973
103.922
101.002
98.227
95.612
93.169
90.909
88.845
86.984
85.335
83.905
82.699
81.72
80.972
80.456
80.172
80.117
80.29
80.685
81.299
82.124
83.152
84.374
85.78
87.359
89.098
90.986
93.007
95.148
97.393
99.727
102.134
104.596
107.097
109.618
112.14
114.646
117.118
119.535
121.881
124.136
126.284
128.309
130.193
131.923
133.483
134.859
136.04
137.014
137.771
138.3
138.594
138.646
138.45
138.002
137.298
136.336
135.115
133.635
131.897
129.903
127.655
125.156
122.407
119.415
116.186
112.725
109.041
105.142
101.04
96.748
92.282
87.656
82.884
